Time (s),Acceleration x (m/s^2),Acceleration y (m/s^2),Acceleration z (m/s^2)
9.00465437,-5.5613096042760936e+38,-8.651149464945444e+38,5.514027721659239e+38
9.00965437,-5.5079740632276484e+38,-8.571936125916515e+38,5.4603569726036464e+38
9.014653703,-5.455151064351676e+38,-8.493425866883363e+38,5.4072195982203315e+38
9.019653736,-5.402835556165335e+38,-8.41561237031771e+38,5.354610022728709e+38
9.024653736,-5.351022538166388e+38,-8.338489383150405e+38,5.3025227307442056e+38
9.029653336,-5.299707060310621e+38,-8.262050716034006e+38,5.250952266760271e+38
9.034652636,-5.248884222494938e+38,-8.18629024261141e+38,5.199893234629096e+38
9.039652636,-5.198549174046216e+38,-8.111201898790504e+38,5.149340297041189e+38
9.044652636,-5.148697113216005e+38,-8.036779682024714e+38,5.0992881750039525e+38
9.049652602,-5.0993232866811415e+38,-7.963017650599457e+38,5.049731647319375e+38
9.054652568,-5.050422989050372e+38,-7.889909922924477e+38,5.000665550060938e+38
9.059652568,-5.001991562377015e+38,-7.817450676832152e+38,4.9520847760498406e+38
9.064652601,-4.9540243956776545e+38,-7.745634148881804e+38,4.903984274330605e+38
9.069652634,-4.9065169244568505e+38,-7.674454633670082e+38,4.856359049646184e+38
9.074652967,-4.8594646302378175e+38,-7.603906483147479e+38,4.809204161912655e+38
9.079653633,-4.812863040099039e+38,-7.533984105940999e+38,4.762514725693622e+38
9.084654266,-4.766707726216731e+38,-7.464681966682984e+38,4.716285909674426e+38
9.089654932,-4.720994305413017e+38,-7.395994585346145e+38,4.6705129361362704e+38
9.094655598,-4.675718438709687e+38,-7.32791653658489e+38,4.6251910804304264e+38
9.099656298,-4.630875830887393e+38,-7.260442449083048e+38,4.580315670452632e+38
9.104656964,-4.586462230050182e+38,-7.193567004908075e+38,4.535882086117804e+38
9.109657864,-4.542473427195198e+38,-7.127284938871795e+38,4.491885758835179e+38
9.114658764,-4.498905255787434e+38,-7.061591037897797e+38,4.448322170983989e+38
9.119659664,-4.45575359133936e+38,-6.996480140395569e+38,4.405186855389763e+38
9.124660064,-4.413014350995331e+38,-6.931947135641474e+38,4.362475394801354e+38
9.12966093,-4.370683493120637e+38,-6.867986963166592e+38,4.320183421368777e+38
9.13466093,-4.3287570168951416e+38,-6.804594612151434e+38,4.278306616121961e+38
9.13966093,-4.2872309619114086e+38,-6.741765120827436e+38,4.23684070845052e+38
9.14466163,-4.246101407777221e+38,-6.67949357588516e+38,4.195781475584744e+38
9.14966133,-4.2053644737224536e+38,-6.6177751118890795e+38,4.155124742078005e+38
9.154661996,-4.165016318210261e+38,-6.556604910698845e+38,4.114866379290718e+38
9.159661962,-4.125053138552589e+38,-6.495978200896988e+38,4.075002304875995e+38
9.164662595,-4.0854711705300056e+38,-6.4358902572230254e+38,4.035528482267094e+38
9.169662561,-4.046266688015891e+38,-6.3763364000139785e+38,3.996440920166801e+38
9.174662561,-4.007436002604993e+38,-6.317311994651268e+38,3.9577356720388445e+38
9.179662961,-3.968975463246395e+38,-6.258812451013937e+38,3.9194088356014786e+38
9.184663694,-3.9308814558808576e+38,-6.2008332229381334e+38,3.88145655232336e+38
9.189663727,-3.893150403082501e+38,-6.143369807682837e+38,3.843875006921845e+38
9.19466376,-3.855778763704755e+38,-6.08641774540182e+38,3.806660426863839e+38
9.19966376,-3.818763032530462e+38,-6.029972618621867e+38,3.769809081869379e+38
9.20466376,-3.782099739926036e+38,-5.974030051727235e+38,3.733317283418077e+38
9.209663726,-3.745785451499517e+38,-5.9185857104503415e+38,3.6971813842585824e+38
9.214663726,-3.7098167677623695e+38,-5.863635301368666e+38,3.661397777921233e+38
9.219663726,-3.6741903237948426e+38,-5.809174571407871e+38,3.625962898234016e+38
9.224663759,-3.638902788914758e+38,-5.75519930735112e+38,3.5908732188419906e+38
9.229663759,-3.603950866349543e+38,-5.701705335354607e+38,3.556125252730288e+38
9.234663759,-3.569331292911361e+38,-5.648688520469353e+38,3.521715551750793e+38
9.239663725,-3.535040838675205e+38,-5.5961447661693346e+38,3.487640706152628e+38
9.244663691,-3.5010763066598905e+38,-5.544070013886025e+38,3.45389734411654e+38
9.249663657,-3.467434532511816e+38,-5.492460242549365e+38,3.420482131293285e+38
9.254663657,-3.434112384191399e+38,-5.441311468135135e+38,3.3873917703460947e+38
9.25966369,-3.4011067616620998e+38,-5.390619743218683e+38,3.3546230004973275e+38
9.264663723,-3.3684145965819234e+38,-5.3403811565349545e+38,3.3221725970793778e+38
9.269663756,-3.3360328519973477e+38,-5.29059183254473e+38,3.2900373710899407e+38
9.274664256,-3.303958522039585e+38,-5.241247931007013e+38,3.258214168751691e+38
9.279664256,-3.272188631623101e+38,-5.192345646557428e+38,3.226699871076437e+38
9.284664222,-3.2407202361463043e+38,-5.14388120829249e+38,3.1954913934337986e+38
9.289664188,-3.2095504211943404e+38,-5.095850879359626e+38,3.1645856851244224e+38
9.294664154,-3.1786763022439337e+38,-5.048250956552887e+38,3.133979728957749e+38
9.299664154,-3.1480950243702446e+38,-5.001077769914233e+38,3.1036705408343236e+38
9.304664154,-3.117803761955694e+38,-4.954327682340329e+38,3.073655169332636e+38
9.309664187,-3.087799718400688e+38,-4.907997089194786e+38,3.0439306953004867e+38
9.31466422,-3.0580801258361844e+38,-4.862082417925783e+38,3.014494231450871e+38
9.319664253,-3.028642244838065e+38,-4.816580127688973e+38,2.9853429219623957e+38
9.324664253,-2.9994833641433048e+38,-4.77148670897561e+38,2.9564739420842205e+38
9.329664253,-2.9706008003679347e+38,-4.7267986832458055e+38,2.9278844977455164e+38
9.334664219,-2.9419918977268075e+38,-4.682512602566894e+38,2.8995718251693942e+38
9.339664219,-2.9136540277551424e+38,-4.638625049256881e+38,2.8715331904912868e+38
9.344664219,-2.885584589031835e+38,-4.595132635532975e+38,2.8437658893817603e+38
9.349664252,-2.8577810069045453e+38,-4.552032003165175e+38,2.8162672466737274e+38
9.354664252,-2.830240733216567e+38,-4.509319823134928e+38,2.789034615994036e+38
9.359664252,-2.8029612460354636e+38,-4.466992795298833e+38,2.7620653793994073e+38
9.364664218,-2.775940049383445e+38,-4.4250476480573824e+38,2.7353569470166896e+38
9.369664184,-2.749174672969448e+38,-4.383481138028745e+38,2.7089067566874072e+38
9.37466415,-2.7226626719229e+38,-4.342290049727578e+38,2.6827122736165942e+38
9.37966415,-2.69640162652915e+38,-4.3014711952488526e+38,2.656770990025915e+38
9.384664183,-2.6703891419665502e+38,-4.261021413956644e+38,2.6310804248110686e+38
9.389664216,-2.6446228480451865e+38,-4.220937572177858e+38,2.6056381232034728e+38
9.394664249,-2.6191003989472495e+38,-4.18121656290088e+38,2.5804416564362238e+38
9.399664249,-2.5938194729690498e+38,-4.141855305479161e+38,2.555488621414342e+38
9.404664249,-2.5687777722646983e+38,-4.102850745339719e+38,2.5307766403892914e+38
9.409664215,-2.5439730225914737e+38,-4.0641998536964984e+38,2.506303360637743e+38
9.414664215,-2.51940297305689e+38,-4.025899627268502e+38,2.4820664541445467e+38
9.419664215,-2.4950653958674684e+38,-3.9879470880025956e+38,2.4580636172898753e+38
9.424664248,-2.4709580860792157e+38,-3.950339282800892e+38,2.4342925705404757e+38
9.429664281,-2.4470788613498265e+38,-3.913073283252615e+38,2.410751058144978e+38
9.434664281,-2.4234255616926302e+38,-3.8761461853703226e+38,2.387436847833211e+38
9.439664281,-2.3999960492322876e+38,-3.839555109330391e+38,2.36434773051949e+38
9.444664281,-2.3767882079622387e+38,-3.803297199217656e+38,2.3414815200098203e+38
9.449664281,-2.3537999435039085e+38,-3.767369622774138e+38,2.318836052712971e+38
9.454664281,-2.3310291828676817e+38,-3.7317695711517754e+38,2.2964091873553846e+38
9.459664247,-2.3084738742156653e+38,-3.696494258669123e+38,2.274198804699919e+38
9.464664247,-2.2861319866262784e+38,-3.66154092257197e+38,2.2522028072684047e+38
9.469664247,-2.26400150986069e+38,-3.6269068227978186e+38,2.230419119068e+38
9.47466428,-2.2420804541311347e+38,-3.59258924174414e+38,2.208845685321333e+38
9.47966428,-2.220366849871148e+38,-3.558585484040339e+38,2.1874804722004083e+38
9.48466428,-2.1988587475077544e+38,-3.524892876323347e+38,2.1663214665642596e+38
9.489664246,-2.1775542172356516e+38,-3.49150876701679e+38,2.145366675700343e+38
9.494664246,-2.1564513487934274e+38,-3.458430526113633e+38,2.1246141270696297e+38
9.499664246,-2.1355482512418645e+38,-3.42565554496222e+38,2.1040618680553535e+38
9.504664279,-2.114843052744336e+38,-3.3931812360556504e+38,2.0837079657153846e+38
9.509664279,-2.09433390034926e+38,-3.361005032824435e+38,2.0635505065381833e+38
9.514664279,-2.0740189597745826e+38,-3.3291243894323554e+38,2.0435875962023086e+38
9.519664279,-2.0538964151942713e+38,-3.2975367805754475e+38,2.0238173593394685e+38
9.524664279,-2.0339644690267884e+38,-3.2662397012840426e+38,2.00423793930111e+38
9.529664279,-2.014221341725551e+38,-3.235230666727834e+38,1.9848474979285593e+38
9.534664245,-1.9946652715713946e+38,-3.204507212023943e+38,1.965644215326739e+38
9.539664245,-1.9752945144670502e+38,-3.1740668920479493e+38,1.9466262896414868e+38
9.544664245,-1.956107343733639e+38,-3.1439072812478283e+38,1.927791936840494e+38
9.549664278,-1.9371020499091787e+38,-3.114025973460736e+38,1.9091393904978766e+38
9.554664311,-1.918276940549103e+38,-3.0844205817325963e+38,1.8906669015823552e+38
9.559664311,-1.899630340028789e+38,-3.0550887381404243e+38,1.87237273824903e+38
9.564664277,-1.8811605893480717e+38,-3.02602809361735e+38,1.854255185634716e+38
9.569664243,-1.8628660459377383e+38,-2.9972363177803125e+38,1.8363125456567983e+38
9.574664243,-1.8447450834679862e+38,-2.9687110987604066e+38,1.8185431368155578e+38
9.579664243,-1.8267960916588114e+38,-2.9404501430358503e+38,1.8009452939999123e+38
9.584664276,-1.809017476092311e+38,-2.912451175267538e+38,1.783517368296521e+38
9.589664276,-1.791407658026887e+38,-2.8847119381371205e+38,1.7662577268022036e+38
9.594664276,-1.7739650742133427e+38,-2.857230192187556e+38,1.7491647524396353e+38
9.599664276,-1.7566881767128723e+38,-2.830003715666068e+38,1.732236843776269e+38
9.604664276,-1.739575432716923e+38,-2.8030303043694334e+38,1.7154724148464432e+38
9.609664276,-1.722625324368926e+38,-2.776307771491506e+38,1.6988698949766235e+38
9.614664242,-1.705836348587895e+38,-2.7498339474728927e+38,1.6824277286137446e+38
9.619664242,-1.689207016893903e+38,-2.723606679852725e+38,1.6661443751566221e+38
9.624664242,-1.672735855235452e+38,-2.6976238331224806e+38,1.6500183087904165e+38
9.629664275,-1.6564214038187504e+38,-2.6718832885817984e+38,1.6340480183241317e+38
9.634664275,-1.6402622169389148e+38,-2.646382944196212e+38,1.6182320070311234e+38
9.639664275,-1.6242568628131071e+38,-2.621120714456736e+38,1.6025687924925957e+38
9.644664241,-1.6084039234156118e+38,-2.596094530241257e+38,1.5870569064440622e+38
9.649664241,-1.5927019943148498e+38,-2.5713023386776728e+38,1.5716948946247234e+38
9.654664241,-1.5771496845123364e+38,-2.5467421030087304e+38,1.5564813166297097e+38
9.659664274,-1.5617456162835877e+38,-2.5224118024585288e+38,1.5414147457651274e+38
9.664664274,-1.546488425020974e+38,-2.4983094321006713e+38,1.5264937689058535e+38
9.669664274,-1.5313767590785225e+38,-2.4744330027280367e+38,1.5117169863560039e+38
9.674664274,-1.5164092796186708e+38,-2.4507805407241466e+38,1.4970830117120046e+38
9.679664274,-1.5015846604609727e+38,-2.4273500879360954e+38,1.4825904717282033e+38
9.684664274,-1.4869015879327525e+38,-2.404139701549006e+38,1.4682380061849615e+38
9.68966424,-1.4723587607217015e+38,-2.3811474539619947e+38,1.4540242677591606e+38
9.694664206,-1.4579548897304116e+38,-2.3583714326656393e+38,1.4399479218970427e+38
9.699664206,-1.443688697932839e+38,-2.335809740120943e+38,1.4260076466893177e+38
9.704664206,-1.4295589202326884e+38,-2.3134604936397673e+38,1.4122021327484606e+38
9.709664239,-1.4155643033236948e+38,-2.291321825266739e+38,1.3985300830881242e+38
9.714664239,-1.4017036055517874e+38,-2.269391881662612e+38,1.3849902130045945e+38
9.719664239,-1.387975596779121e+38,-2.2476688239890642e+38,1.3715812499602204e+38
9.724664205,-1.3743790582499779e+38,-2.226150827794894e+38,1.358301933468744e+38
9.729664205,-1.360912782458532e+38,-2.2048360829036146e+38,1.3451510149824592e+38
9.734664205,-1.3475755730184621e+38,-2.1837227933024177e+38,1.3321272577811404e+38
9.739664238,-1.3343662445343993e+38,-2.162809177032466e+38,1.3192294368626847e+38
9.744664238,-1.3212836224751963e+38,-2.1420934660804713e+38,1.3064563388354141e+38
9.749664238,-1.3083265430490173e+38,-2.1215739062715162e+38,1.2938067618119781e+38
9.754664238,-1.295493853080246e+38,-2.1012487571630805e+38,1.2812795153047944e+38
9.759664238,-1.2827844098882146e+38,-2.081116291940233e+38,1.2688734201229672e+38
9.764664238,-1.2701970811677442e+38,-2.0611747973119724e+38,1.2565873082706104e+38
9.769664204,-1.2577307448714902e+38,-2.041422573408674e+38,1.244420022846519e+38
9.774664204,-1.2453842890940688e+38,-2.021857933680603e+38,1.2323704179451335e+38
9.779664204,-1.233156611957949e+38,-2.0024792047974567e+38,1.220437358558749e+38
9.784664237,-1.2210466215010866e+38,-1.9832847265488993e+38,1.2086197204809167e+38
9.789664237,-1.2090532355662839e+38,-1.964272851746074e+38,1.1969163902110016e+38
9.794664237,-1.1971753816922484e+38,-1.9454419461241033e+38,1.18532626485986e+38
9.799664203,-1.185411997006339e+38,-1.92679038824558e+38,1.1738482520565994e+38
9.804664169,-1.1737620281189927e+38,-1.908316569405039e+38,1.1624812698563823e+38
9.809664135,-1.1622244310198215e+38,-1.8900188935343902e+38,1.151224246649228e+38
9.814664135,-1.1507981709753529e+38,-1.8718957771093163e+38,1.1400761210697765e+38
9.819664135,-1.1394822224283964e+38,-1.8539456490566346e+38,1.129035841907965e+38
9.824664168,-1.1282755688990174e+38,-1.836166950662619e+38,1.1181023680205765e+38
9.829664201,-1.1171772028870991e+38,-1.8185581354822658e+38,1.1072746682436253e+38
9.834664234,-1.1061861257764749e+38,-1.8011176692494814e+38,1.0965517213055403e+38
9.839664234,-1.0953013477406105e+38,-1.783844029788164e+38,1.085932515741114e+38
9.844664234,-1.0845218876498107e+38,-1.7667357069241835e+38,1.0754160498061836e+38
9.8496642,-1.0738467729799157e+38,-1.749791202398258e+38,1.065001331393019e+38
9.8546642,-1.0632750397224654e+38,-1.7330090297797206e+38,1.0546873779463912e+38
9.8596642,-1.0528057322962972e+38,-1.7163877143811506e+38,1.0444732163802954e+38
9.864664233,-1.0424379034605465e+38,-1.699925793173863e+38,1.0343578829952983e+38
9.869664233,-1.0321706142290042e+38,-1.6836218147042466e+38,1.0243404233964854e+38
9.874664233,-1.0220029337858037e+38,-1.6674743390109545e+38,1.0144198924119869e+38
9.879664199,-1.0119339394024174e+38,-1.651481937542955e+38,1.0045953540120597e+38
9.884664165,-1.0019627163559482e+38,-1.6356431930784335e+38,9.948658812287076e+37
9.889664131,-9.920883578487121e+37,-1.6199566996445229e+38,9.852305560758177e+37
9.894664131,-9.823099649291032e+37,-1.6044210624378452e+38,9.756884694697967e+37
9.899664164,-9.72626646413739e+37,-1.5890348977458577e+38,9.662387211506847e+37
9.904664197,-9.630375188108856e+37,-1.5737968328689872e+38,9.568804196037266e+37
9.90966423,-9.535417062451638e+37,-1.5587055060435265e+38,9.476126819813781e+37
9.91466423,-9.441383403835454e+37,-1.5437595663652695e+38,9.384346340257289e+37
9.91966423,-9.348265603626358e+37,-1.528957673713861e+38,9.293454099913294e+37
9.924664196,-9.256055127172405e+37,-1.5142984986778405e+38,9.203441525684106e+37
9.929663496,-9.164743513102107e+37,-1.499780722480352e+38,9.11430012806487e+37
9.934662829,-9.07432237263565e+37,-1.4854030369055026e+38,9.026021500383459e+37
9.939661962,-8.984783388908786e+37,-1.4711641442253612e+38,8.938597318044228e+37
9.944661328,-8.896118316309287e+37,-1.457062757127583e+38,8.85201933777573e+37
9.949660661,-8.808318979825736e+37,-1.4430975986436528e+38,8.766279396882497e+37
9.954660661,-8.721377274408496e+37,-1.42926740207773e+38,8.681369412501021e+37
9.959659994,-8.63528516434265e+37,-1.4155709109360781e+38,8.59728138086008e+37
9.964659094,-8.550034682632672e+37,-1.4020068788570629e+38,8.514007376545512e+37
9.969658194,-8.465617930398567e+37,-1.3885740695417135e+38,8.431539551769492e+37
9.97465726,-8.382027076283146e+37,-1.3752712566848498e+38,8.349870135644394e+37
9.97965636,-8.299254355870176e+37,-1.3620972239067754e+38,8.268991433461224e+37
9.98465636,-8.21729207111321e+37,-1.349050764685529e+38,8.188895825972695e+37
9.989655726,-8.136132589774836e+37,-1.3361306822897029e+38,8.109575768680899e+37
9.994655059,-8.055768344876203e+37,-1.3233357897118331e+38,8.031023791129552e+37
9.999654892,-7.976191834156651e+37,-1.310664909602366e+38,7.953232496200734e+37
10.00465486,-7.89739561954321e+37,-1.2981168742042024e+38,7.876194559416059e+37
10.00965486,-7.819372326629732e+37,-1.285690525287824e+38,7.799902728242129e+37
10.01465486,-7.742114644165398e+37,-1.273384714087007e+38,7.724349821400132e+37
10.01965422,-7.66561532355234e+37,-1.2611983012351312e+38,7.649528728179506e+37
10.02465422,-7.589867178352126e+37,-1.2491301567020909e+38,7.575432407755596e+37
10.02965422,-7.514863083800816e+37,-1.2371791597318161e+38,7.502053888511239e+37
10.03465422,-7.440595976332268e+37,-1.2253441987804058e+38,7.429386267362173e+37
10.03965422,-7.367058853109368e+37,-1.213624171454873e+38,7.357422709086248e+37
10.04465382,-7.294244771562847e+37,-1.202017984452508e+38,7.28615644565639e+37
10.04965369,-7.222146848937376e+37,-1.1905245535008662e+38,7.215580775577224e+37
10.05465366,-7.15075826184459e+37,-1.1791428032983988e+38,7.145689063225346e+37
10.05965366,-7.080072245822679e+37,-1.1678716674557492e+38,7.076474738193273e+37
10.06465369,-7.010082094902146e+37,-1.156710088437732e+38,7.0079312946370865e+37
10.06965372,-6.940781161177273e+37,-1.1456570175059966e+38,6.940052290627827e+37
10.07465372,-6.872162854382835e+37,-1.1347114146623708e+38,6.872831347506648e+37
10.07965439,-6.804220641475693e+37,-1.123872248592876e+38,6.806262149243787e+37
10.08465502,-6.736948046220935e+37,-1.1131384966124029e+38,6.740338441801443e+37
10.08965589,-6.670338648782297e+37,-1.1025091446100295e+38,6.6750540325007465e+37
10.09465652,-6.604386085316635e+37,-1.0919831869949529e+38,6.610402789393067e+37
10.09965719,-6.539084047572188e+37,-1.0815596266430234e+38,6.54637864063591e+37
10.10465722,-6.474426282490355e+37,-1.0712374748438628e+38,6.482975573873631e+37
10.10965792,-6.410406591810831e+37,-1.0610157512485483e+38,6.420187635623119e+37
10.11465885,-6.3470188316799825e+37,-1.0508934838178446e+38,6.358008930664598e+37
10.11965975,-6.284256912262433e+37,-1.04086970877097e+38,6.296433621437629e+37
10.12466065,-6.222114797355864e+37,-1.030943470534874e+38,6.235455927442401e+37
10.12966152,-6.160586504009047e+37,-1.0211138216940124e+38,6.175070124646342e+37
10.13466152,-6.099666102143154e+37,-1.0113798229406098e+38,6.115270544896108e+37
10.13966218,-6.039347714176363e+37,-1.0017405430253843e+38,6.056051575334982e+37
10.14466288,-5.979625514651805e+37,-9.921950587087215e+37,5.997407657825745e+37
10.14966305,-5.920493729868812e+37,-9.827424547122696e+37,5.939333288379025e+37
10.15466305,-5.861946637517373e+37,-9.733818236709384e+37,5.88182301658712e+37
10.15966302,-5.80397856631566e+37,-9.641122660852776e+37,5.824871445063202e+37
10.16466298,-5.746583895650469e+37,-9.549328902742185e+37,5.768473228885841e+37
10.16966362,-5.689757055220397e+37,-9.45842812328156e+37,5.71262307504879e+37
10.17466362,-5.633492524681604e+37,-9.368411560623379e+37,5.657315741915931e+37
10.17966362,-5.57778483329595e+37,-9.279270529705345e+37,5.602546038681332e+37
10.18466365,-5.5226285595813775e+37,-9.190996421789637e+37,5.548308824834324e+37
10.18966368,-5.468018330964403e+37,-9.103580704004512e+37,5.4945990096295435e+37
10.19466411,-5.413948823434561e+37,-9.017014918888073e+37,5.441411551561833e+37
10.19966421,-5.360414761200588e+37,-8.931290683934e+37,5.388741457845895e+37
10.20466421,-5.307410916348171e+37,-8.846399691139093e+37,5.336583783900627e+37
10.20966418,-5.254932108499127e+37,-8.76233370655256e+37,5.284933632838026e+37
10.21466418,-5.20297320447181e+37,-8.679084569826905e+37,5.233786154956616e+37
10.21966418,-5.151529117942616e+37,-8.596644193770396e+37,5.183136547239359e+37
10.22466421,-5.100594809108478e+37,-8.515004563901092e+37,5.132980052855972e+37
10.22966421,-5.050165284350227e+37,-8.43415773800239e+37,5.08331196066954e+37
