Time (s),Acceleration x (m/s^2),Acceleration y (m/s^2),Acceleration z (m/s^2)
4.003888385,-1.29451704,-9.317651749,-3.75673151
4.008643905,-1.478764415,-9.430113792,-3.797409534
4.013399374,-1.588834286,-9.544969559,-3.768695593
4.018154895,-1.698904037,-9.659825325,-3.711267948
4.022910364,-1.849651933,-9.812965393,-3.665804386
4.027665885,-1.969292998,-9.934999466,-3.567698479
4.032421405,-2.086541414,-9.987641335,-3.476771355
4.037176874,-2.132004976,-9.982855797,-3.378665686
4.041932395,-2.146361828,-9.865608215,-3.270988464
4.046687916,-2.153540373,-9.722038269,-3.144168854
4.051443385,-2.143969059,-9.554540634,-3.05324173
4.056198905,-2.124826431,-9.372686386,-2.952743053
4.060954426,-2.038684845,-9.219545364,-2.868994236
4.065709895,-1.935793519,-9.078369141,-2.775674343
4.070465416,-1.737189293,-9.018548965,-2.689532757
4.075220885,-1.473978758,-8.970691681,-2.634497643
4.079976405,-1.249053478,-8.939585686,-2.577069998
4.084731926,-1.024128079,-8.95154953,-2.500499725
4.089487395,-0.8422735929,-8.98026371,-2.438286304
4.094242916,-0.6747759581,-9.044869423,-2.400001049
4.098998437,-0.4785645306,-9.114261627,-2.390429735
4.103753905,-0.2871387303,-9.195617676,-2.383251429
4.108509426,-0.1100698411,-9.317651749,-2.388036966
4.113264895,0.09810572863,-9.422935486,-2.392822742
4.118020416,0.3254238665,-9.583254814,-2.421536446
4.122775937,0.500099957,-9.755537987,-2.440679073
4.127531405,0.6125625968,-9.896714211,-2.426322222
4.132286926,0.6891329288,-10.07856941,-2.474178553
4.137042447,0.6939185858,-10.23888779,-2.553141832
4.141797916,0.6436693072,-10.34656525,-2.627319336
4.146553437,0.5790630579,-10.41835022,-2.713460922
4.151308958,0.500099957,-10.44227791,-2.825923443
4.156064426,0.4833501875,-10.41835022,-2.94317174
4.160819947,0.4642075896,-10.35613632,-3.043670416
4.165575416,0.4689932466,-10.26281643,-3.113062143
4.170330937,0.433100909,-10.14078236,-3.199203968
4.175086458,0.4163511395,-10.01156998,-3.256631613
4.179841926,0.3469592929,-9.868000984,-3.290131092
4.184597447,0.3086741269,-9.736394882,-3.294916868
4.189352968,0.2727817893,-9.623932838,-3.270988464
4.194108437,0.2967100143,-9.549755096,-3.208775282
4.198863958,0.2703889608,-9.49232769,-3.108276606
4.203619478,0.2344966233,-9.511469841,-2.998206854
4.208374947,0.2416750938,-9.530612946,-2.900100946
4.213130468,0.1866401732,-9.576076508,-2.833101988
4.217885989,0.2057827413,-9.657432556,-2.821137905
4.222641458,0.2536391914,-9.743574142,-2.821137905
4.227396978,0.2871387303,-9.8201437,-2.830709219
4.232152447,0.2536391914,-9.882357597,-2.883351326
4.236907968,0.1986042857,-9.925428391,-2.890529871
4.241663489,0.1196411327,-9.987641335,-2.912065268
4.246418958,0.0239282269,-10.0331049,-2.931207657
4.251174478,-0.1076770201,-10.07378292,-2.931207657
4.255929999,-0.2033899277,-10.06899738,-2.931207657
4.260685468,-0.2919243574,-10.08335495,-2.928814888
4.265440989,-0.3493520916,-10.08096218,-2.938386202
4.27019651,-0.3780659735,-10.04028416,-2.931207657
4.274951978,-0.4163511395,-10.01635551,-2.94317174
4.279707499,-0.4426721931,-9.956535339,-2.952743053
4.28446302,-0.4809573591,-9.906285286,-2.959921598
4.289218489,-0.5623133183,-9.836894035,-2.98863554
4.29397401,-0.5886343718,-9.760323524,-2.979064226
4.29872953,-0.6364908218,-9.6693964,-2.964707375
4.303484999,-0.6699903607,-9.595218658,-2.895315409
4.30824052,-0.7465606928,-9.518648148,-2.859423161
4.312996041,-0.837487936,-9.410971642,-2.785245657
4.31775151,-0.8518448472,-9.317651749,-2.699103832
4.32250703,-0.890130043,-9.229117393,-2.565105915
4.327262551,-0.9188438654,-9.174081802,-2.445464849
4.33201802,-0.9714859724,-9.092725754,-2.275574446
4.336773541,-0.993021369,-9.028120041,-2.170290232
4.341529062,-1.012163997,-8.994620323,-2.057827473
4.34628453,-0.9571290612,-8.939585686,-1.931007862
4.351040051,-0.9762716293,-8.953942299,-1.895115495
4.35579552,-1.000199914,-8.95154953,-1.840080619
4.360551041,-0.9212366939,-8.958727837,-1.818545222
4.365306562,-0.8638089895,-8.985049248,-1.887937069
4.37006203,-0.8279166222,-9.049654961,-1.938186288
4.374817551,-0.8327022791,-9.102297783,-2.033899307
4.379573072,-0.8566305041,-9.17886734,-2.146361828
4.384328541,-0.8518448472,-9.233902931,-2.261217356
4.389084062,-0.8542376757,-9.300901413,-2.364108801
4.393839583,-0.8422735929,-9.355937004,-2.471785784
4.398595051,-0.8279166222,-9.41336441,-2.54117775
4.403350572,-0.8039883971,-9.44207859,-2.610569477
4.408106093,-0.7776673436,-9.475577354,-2.658426046
4.412861562,-0.7250252366,-9.494720459,-2.699103832
4.417617083,-0.7154539824,-9.523433685,-2.73260355
4.422372603,-0.6843472719,-9.530612946,-2.734996319
4.427128072,-0.6675975323,-9.554540634,-2.746960402
4.431883593,-0.6388836503,-9.561718941,-2.742174864
4.436639114,-0.5982056856,-9.56411171,-2.727817774
4.441394583,-0.5623133183,-9.556933403,-2.727817774
4.446150103,-0.5479564071,-9.540184021,-2.706282377
4.450905624,-0.5024927258,-9.535398483,-2.725425005
4.455661093,-0.4666004181,-9.509077072,-2.699103832
4.460416614,-0.4666004181,-9.477970123,-2.696711063
4.465172135,-0.457029134,-9.475577354,-2.672782898
4.469927603,-0.433100909,-9.473184586,-2.658426046
4.474683124,-0.3876372576,-9.473184586,-2.63689065
4.479438645,-0.3732803464,-9.46361351,-2.620140791
4.484194114,-0.3684946895,-9.49232769,-2.632104874
4.488949635,-0.3565305769,-9.49232769,-2.624926329
4.493705155,-0.3780659735,-9.497113228,-2.639283419
4.498460624,-0.35174492,-9.501898766,-2.648854733
4.503216145,-0.3397808075,-9.516255379,-2.646461725
4.507971666,-0.3732803464,-9.561718941,-2.634497643
4.512727135,-0.3780659735,-9.583254814,-2.651247501
4.517482655,-0.3780659735,-9.556933403,-2.648854733
4.522238176,-0.366101861,-9.556933403,-2.63689065
4.526993645,-0.3996013701,-9.573683739,-2.658426046
4.531749166,-0.3708875179,-9.540184021,-2.648854733
4.536504687,-0.3637090325,-9.549755096,-2.665604353
4.541260155,-0.3780659735,-9.544969559,-2.684746981
4.546015676,-0.3852444589,-9.518648148,-2.684746981
4.550771197,-0.380458802,-9.501898766,-2.670390129
4.555526666,-0.3565305769,-9.487542152,-2.691925526
4.560282187,-0.366101861,-9.475577354,-2.672782898
4.565037708,-0.3756731451,-9.458827972,-2.689532757
4.569793176,-0.380458802,-9.451649666,-2.679961443
4.574548697,-0.4019941986,-9.437292099,-2.711068153
4.579304218,-0.394815743,-9.408578873,-2.699103832
4.584059739,-0.4019941986,-9.394221306,-2.725425005
4.588815208,-0.4378865361,-9.391828537,-2.742174864
4.593570728,-0.4618147612,-9.372686386,-2.751745939
4.598326249,-0.4761717021,-9.372686386,-2.76371026
4.603081718,-0.500099957,-9.372686386,-2.758924484
4.607837239,-0.5192425251,-9.334401131,-2.751745939
4.61259276,-0.5288137794,-9.367900848,-2.737389088
4.617348228,-0.5479564071,-9.379864693,-2.751745939
4.622103749,-0.5742774606,-9.36550808,-2.768495798
4.62685927,-0.5527420044,-9.375079155,-2.742174864
4.631614739,-0.5623133183,-9.377471924,-2.758924484
4.63637026,-0.5647061467,-9.382257462,-2.773281336
4.64112578,-0.5527420044,-9.382257462,-2.761317253
4.645881249,-0.5359922647,-9.38465023,-2.775674343
4.65063677,-0.5288137794,-9.394221306,-2.775674343
4.655392291,-0.4953143001,-9.379864693,-2.78285265
4.66014776,-0.4785645306,-9.422935486,-2.780459881
4.66490328,-0.471386075,-9.430113792,-2.78285265
4.669658801,-0.471386075,-9.425328255,-2.76371026
4.67441427,-0.4618147612,-9.46361351,-2.768495798
4.679169791,-0.4642075896,-9.454042435,-2.751745939
4.683925312,-0.4737788737,-9.451649666,-2.734996319
4.68868078,-0.4881358147,-9.437292099,-2.71824646
4.693436301,-0.4977070987,-9.458827972,-2.711068153
4.698191822,-0.5072783828,-9.430113792,-2.691925526
4.702947291,-0.5312066078,-9.425328255,-2.70149684
4.707702812,-0.5599204898,-9.437292099,-2.689532757
4.712458333,-0.5790630579,-9.44207859,-2.682354212
4.717213853,-0.6005984545,-9.403793335,-2.706282377
4.721969322,-0.6293123364,-9.396614075,-2.691925526
4.726724843,-0.6388836503,-9.399007797,-2.670390129
4.731480364,-0.6293123364,-9.391828537,-2.65364027
4.736235833,-0.6388836503,-9.372686386,-2.665604353
4.740991353,-0.6364908218,-9.389435768,-2.660818815
4.745746874,-0.6245267391,-9.41336441,-2.68713975
4.750502343,-0.6125625968,-9.408578873,-2.694318295
4.755257864,-0.6101697683,-9.430113792,-2.713460922
4.760013385,-0.5694918036,-9.410971642,-2.696711063
4.764768853,-0.5718846321,-9.43489933,-2.723032236
4.769524374,-0.5599204898,-9.44207859,-2.734996319
4.774279895,-0.5479564071,-9.456435204,-2.751745939
4.779035364,-0.5407779217,-9.473184586,-2.758924484
4.783790885,-0.5407779217,-9.439684868,-2.766103029
4.788546405,-0.5431707501,-9.439684868,-2.756531715
4.793301926,-0.5527420044,-9.43489933,-2.74935317
4.798057395,-0.5407779217,-9.401400566,-2.768495798
4.802812916,-0.5192425251,-9.379864693,-2.773281336
4.807568437,-0.5503492355,-9.358329773,-2.768495798
4.812323905,-0.5479564071,-9.355937004,-2.773281336
4.817079426,-0.5647061467,-9.346364975,-2.756531715
4.821834947,-0.5503492355,-9.355937004,-2.766103029
4.826590416,-0.5479564071,-9.358329773,-2.758924484
4.831345937,-0.5455635786,-9.367900848,-2.744567633
4.836101458,-0.5264210105,-9.367900848,-2.768495798
4.840856926,-0.5431707501,-9.370293617,-2.761317253
4.845612447,-0.5359922647,-9.355937004,-2.761317253
4.850367968,-0.5312066078,-9.375079155,-2.768495798
4.855123489,-0.5335994363,-9.387042999,-2.773281336
4.859878958,-0.5431707501,-9.418149948,-2.78285265
4.864634478,-0.5527420044,-9.410971642,-2.790031195
4.869389999,-0.5144568682,-9.422935486,-2.809173822
4.874145468,-0.4977070987,-9.418149948,-2.823530674
4.878900989,-0.5048855543,-9.430113792,-2.857030153
4.88365651,-0.5120640397,-9.422935486,-2.888136864
4.888411978,-0.4881358147,-9.425328255,-2.90967226
4.893167499,-0.5168496966,-9.406186104,-2.916850805
4.89792302,-0.5120640397,-9.391828537,-2.919243574
4.902678489,-0.5120640397,-9.379864693,-2.962314367
4.90743401,-0.5264210105,-9.396614075,-2.952743053
4.91218953,-0.5479564071,-9.36550808,-2.955136061
4.916945051,-0.5527420044,-9.36550808,-2.971885681
4.92170052,-0.5814558864,-9.348757744,-2.964707375
4.926456041,-0.5958128572,-9.324830055,-2.964707375
4.931211562,-0.6005984545,-9.317651749,-2.979064226
4.93596703,-0.6053841114,-9.310472488,-2.950350285
4.940722551,-0.6317051649,-9.291330338,-2.964707375
4.945478072,-0.6317051649,-9.303294182,-2.971885681
4.950233541,-0.6675975323,-9.310472488,-2.959921598
4.954989062,-0.6484549642,-9.298508644,-2.962314367
4.959744583,-0.6460621357,-9.320044518,-2.95752883
4.964500051,-0.6149554253,-9.298508644,-2.962314367
4.969255572,-0.6460621357,-9.324830055,-2.95752883
4.974011093,-0.6340979934,-9.334401131,-2.969492912
4.978766614,-0.6364908218,-9.358329773,-2.95752883
4.983522083,-0.6221339107,-9.370293617,-2.952743053
4.988277603,-0.6412764788,-9.427721024,-2.967100143
4.993033124,-0.6340979934,-9.44207859,-2.976671457
4.997788593,-0.6532405615,-9.458827972,-2.98863554
5.002544114,-0.6388836503,-9.46361351,-2.967100143
5.007299635,-0.6149554253,-9.477970123,-2.969492912
5.012055103,-0.6388836503,-9.461220741,-2.959921598
5.016810624,-0.6580262184,-9.46361351,-2.955136061
5.021566145,-0.6891329288,-9.43489933,-2.955136061
5.026321666,-0.708275497,-9.44207859,-2.928814888
5.031077135,-0.7226324677,-9.403793335,-2.912065268
5.035832655,-0.7130611539,-9.377471924,-2.895315409
5.040588176,-0.7274180651,-9.355937004,-2.885744095
5.045343645,-0.7633104324,-9.382257462,-2.871387243
5.050099166,-0.7489534616,-9.367900848,-2.849851847
5.054854687,-0.7345965505,-9.36550808,-2.837887764
5.059610208,-0.7298108935,-9.363115311,-2.811566591
5.064365676,-0.7130611539,-9.3367939,-2.804388046
5.069121197,-0.70348984,-9.341579437,-2.775674343
5.073876718,-0.7010970116,-9.334401131,-2.773281336
5.078632187,-0.6484549642,-9.312865257,-2.768495798
5.083387708,-0.6412764788,-9.291330338,-2.76371026
5.088143228,-0.6412764788,-9.281759262,-2.76371026
5.092898749,-0.6149554253,-9.300901413,-2.74935317
5.097654218,-0.6101697683,-9.288937569,-2.744567633
5.102409739,-0.5862415433,-9.2865448,-2.761317253
5.10716526,-0.5766702294,-9.288937569,-2.775674343
5.111920728,-0.5527420044,-9.305686951,-2.780459881
5.116676249,-0.5359922647,-9.293723106,-2.768495798
5.12143177,-0.5024927258,-9.312865257,-2.785245657
5.126187291,-0.5503492355,-9.317651749,-2.801995277
5.13094276,-0.5575276613,-9.346364975,-2.821137905
5.13569828,-0.5503492355,-9.363115311,-2.837887764
5.140453801,-0.5575276613,-9.355937004,-2.861815929
5.14520927,-0.5718846321,-9.36550808,-2.883351326
5.149964791,-0.5694918036,-9.370293617,-2.904886723
5.154720312,-0.6005984545,-9.346364975,-2.916850805
5.15947578,-0.5718846321,-9.341579437,-2.94317174
5.164231301,-0.5934200287,-9.348757744,-2.97427845
5.168986822,-0.6053841114,-9.346364975,-2.98863554
5.173742343,-0.6101697683,-9.348757744,-2.993421078
5.178497812,-0.5886343718,-9.348757744,-3.007778168
5.183253333,-0.5934200287,-9.363115311,-2.98863554
5.188008853,-0.5575276613,-9.351150513,-3.017349243
5.192764322,-0.5551348329,-9.332008362,-3.002992392
5.197519843,-0.5575276613,-9.375079155,-2.995813847
5.202275364,-0.5718846321,-9.379864693,-2.98863554
5.207030885,-0.5694918036,-9.394221306,-2.98863554
5.211786353,-0.5766702294,-9.415757179,-2.995813847
5.216541874,-0.5838487148,-9.420542717,-2.986242771
5.221297395,-0.5982056856,-9.427721024,-2.98863554
5.226052864,-0.6005984545,-9.427721024,-3.010170937
5.230808385,-0.5838487148,-9.427721024,-3.01974225
5.235563905,-0.5910272002,-9.415757179,-3.03888464
5.240319426,-0.6125625968,-9.430113792,-3.048455954
5.245074895,-0.6484549642,-9.406186104,-3.055634499
5.249830416,-0.6317051649,-9.399007797,-3.058027267
5.254585937,-0.6604190469,-9.389435768,-3.065205812
5.259341405,-0.679561615,-9.387042999,-3.060420275
5.264096926,-0.7106683254,-9.379864693,-3.03888464
5.268852447,-0.70348984,-9.355937004,-3.043670416
5.273607916,-0.7226324677,-9.341579437,-3.031706333
5.278363437,-0.7537391186,-9.322437286,-3.022135019
5.283118958,-0.7441678643,-9.329615593,-3.007778168
5.287874478,-0.7465606928,-9.312865257,-2.986242771
5.292629947,-0.7178468108,-9.274580956,-2.979064226
5.297385468,-0.7345965505,-9.260223389,-2.967100143
5.302140989,-0.70348984,-9.233902931,-2.938386202
5.306896458,-0.6939185858,-9.214759827,-2.935993433
5.311651978,-0.7130611539,-9.198010445,-2.935993433
5.316407499,-0.708275497,-9.209974289,-2.916850805
5.32116302,-0.7274180651,-9.217152596,-2.938386202
5.325918489,-0.7369893789,-9.260223389,-2.928814888
5.33067401,-0.732203722,-9.274580956,-2.938386202
5.33542953,-0.7465606928,-9.317651749,-2.940778971
5.340184999,-0.7657032609,-9.355937004,-2.928814888
5.34494052,-0.7896314859,-9.382257462,-2.928814888
5.349696041,-0.7824530005,-9.432506561,-2.919243574
5.354451562,-0.7944171429,-9.439684868,-2.904886723
5.35920703,-0.784845829,-9.456435204,-2.92402935
5.363962551,-0.7489534616,-9.489934921,-2.926422119
5.368718072,-0.7202396393,-9.477970123,-2.90967226
5.373473593,-0.7274180651,-9.46361351,-2.90967226
5.378229062,-0.6963114142,-9.446864128,-2.914458036
5.382984583,-0.7106683254,-9.415757179,-2.912065268
5.387740103,-0.6891329288,-9.377471924,-2.895315409
5.392495572,-0.6652047038,-9.346364975,-2.880958557
5.397251093,-0.6293123364,-9.31525898,-2.876172781
5.402006614,-0.6101697683,-9.281759262,-2.852244616
5.406762135,-0.6197410822,-9.269794464,-2.835494757
5.411517603,-0.5958128572,-9.253045082,-2.833101988
5.416273124,-0.5958128572,-9.245866776,-2.801995277
5.421028645,-0.5910272002,-9.248259544,-2.770888567
5.425784114,-0.5934200287,-9.269794464,-2.746960402
5.430539635,-0.5718846321,-9.288937569,-2.727817774
5.435295155,-0.5623133183,-9.312865257,-2.703889608
5.440050676,-0.5503492355,-9.3367939,-2.694318295
5.444806145,-0.5431707501,-9.377471924,-2.689532757
5.449561666,-0.5288137794,-9.387042999,-2.682354212
5.454317187,-0.5216353536,-9.418149948,-2.706282377
5.459072655,-0.5623133183,-9.446864128,-2.727817774
5.463828176,-0.5623133183,-9.439684868,-2.720639229
5.468583697,-0.5383850932,-9.43489933,-2.730210543
5.473339218,-0.5335994363,-9.420542717,-2.74935317
5.478094687,-0.5455635786,-9.422935486,-2.761317253
5.482850208,-0.5623133183,-9.410971642,-2.773281336
5.487605728,-0.5503492355,-9.425328255,-2.790031195
5.492361197,-0.5647061467,-9.408578873,-2.811566591
5.497116718,-0.5599204898,-9.401400566,-2.806781054
5.501872239,-0.5958128572,-9.41336441,-2.823530674
5.50662776,-0.5862415433,-9.410971642,-2.821137905
5.511383228,-0.6029912829,-9.401400566,-2.842673302
5.516138749,-0.6173482537,-9.415757179,-2.840280533
5.52089427,-0.6029912829,-9.403793335,-2.868994236
5.525649791,-0.6293123364,-9.394221306,-2.857030153
5.53040526,-0.6197410822,-9.403793335,-2.859423161
5.53516078,-0.6412764788,-9.43489933,-2.873780012
5.539916301,-0.6675975323,-9.422935486,-2.864208698
5.54467177,-0.650847733,-9.446864128,-2.871387243
5.549427291,-0.6412764788,-9.432506561,-2.849851847
5.554182812,-0.6149554253,-9.415757179,-2.847458839
5.558938333,-0.6125625968,-9.387042999,-2.868994236
5.563693801,-0.6005984545,-9.382257462,-2.859423161
5.568449322,-0.5599204898,-9.36550808,-2.866601467
5.573204843,-0.5790630579,-9.351150513,-2.880958557
5.577960312,-0.5862415433,-9.351150513,-2.868994236
5.582715833,-0.5934200287,-9.353543282,-2.859423161
5.587471353,-0.6101697683,-9.36550808,-2.857030153
5.592226874,-0.6053841114,-9.353543282,-2.852244616
5.596982343,-0.5862415433,-9.382257462,-2.859423161
5.601737864,-0.6029912829,-9.382257462,-2.854637384
5.606493385,-0.6053841114,-9.391828537,-2.840280533
5.611248905,-0.6053841114,-9.403793335,-2.837887764
5.616004374,-0.5934200287,-9.437292099,-2.847458839
5.620759895,-0.6101697683,-9.454042435,-2.849851847
5.625515416,-0.6388836503,-9.470791817,-2.864208698
5.630270885,-0.6197410822,-9.456435204,-2.849851847
5.635026405,-0.6005984545,-9.46361351,-2.859423161
5.639781926,-0.6125625968,-9.444471359,-2.840280533
5.644537447,-0.6173482537,-9.451649666,-2.849851847
5.649292916,-0.5934200287,-9.43489933,-2.849851847
5.654048437,-0.5862415433,-9.432506561,-2.845066071
5.658803958,-0.5934200287,-9.415757179,-2.825923443
5.663559478,-0.5934200287,-9.401400566,-2.830709219
5.668314947,-0.5503492355,-9.382257462,-2.821137905
5.673070468,-0.5407779217,-9.387042999,-2.830709219
5.677825989,-0.5479564071,-9.382257462,-2.821137905
5.682581458,-0.5718846321,-9.372686386,-2.82831645
5.687336978,-0.5814558864,-9.355937004,-2.825923443
5.692092499,-0.5742774606,-9.377471924,-2.811566591
5.696847968,-0.5910272002,-9.375079155,-2.79720974
5.701603489,-0.5814558864,-9.377471924,-2.794816732
5.70635901,-0.5862415433,-9.394221306,-2.78285265
5.71111453,-0.6005984545,-9.396614075,-2.785245657
5.715869999,-0.6005984545,-9.403793335,-2.775674343
5.72062552,-0.5766702294,-9.399007797,-2.751745939
5.725381041,-0.5527420044,-9.399007797,-2.758924484
5.730136562,-0.5551348329,-9.41336441,-2.770888567
5.73489203,-0.5503492355,-9.408578873,-2.754138947
5.739647551,-0.5407779217,-9.406186104,-2.761317253
5.744403072,-0.5455635786,-9.382257462,-2.761317253
5.749158541,-0.4977070987,-9.375079155,-2.775674343
5.753914062,-0.4857429862,-9.399007797,-2.758924484
5.758669583,-0.4761717021,-9.379864693,-2.773281336
5.763425103,-0.4498506486,-9.403793335,-2.773281336
5.768180572,-0.4498506486,-9.406186104,-2.794816732
5.772936093,-0.4474578202,-9.401400566,-2.790031195
5.777691614,-0.4354937077,-9.41336441,-2.792423964
5.782447135,-0.433100909,-9.41336441,-2.78285265
5.787202603,-0.4546363056,-9.408578873,-2.778067112
5.791958124,-0.4426721931,-9.406186104,-2.768495798
5.796713645,-0.4833501875,-9.415757179,-2.76371026
5.801469114,-0.4857429862,-9.415757179,-2.751745939
5.806224635,-0.5072783828,-9.410971642,-2.770888567
5.810980155,-0.5264210105,-9.406186104,-2.778067112
5.815735676,-0.5312066078,-9.396614075,-2.78285265
5.820491145,-0.5359922647,-9.403793335,-2.778067112
5.825246666,-0.5288137794,-9.427721024,-2.799602509
5.830002187,-0.5096712112,-9.430113792,-2.818745136
5.834757655,-0.5048855543,-9.437292099,-2.811566591
5.839513176,-0.4881358147,-9.43489933,-2.830709219
