Time (s),X (m/s^2),Y (m/s^2),Z (m/s^2)
9.003341958,-0.06194810973110239,2.3393321443744544,0.14387330307064244
9.013266958,0.1406434375326676,2.1838427974791412,0.016369060917133933
9.023191958,0.34405469495314284,2.021752253817964,-0.11143917662862612
9.033117958,0.5474677552460362,1.8536652677975733,-0.2391351255180599
9.043042958,0.7500603470815564,1.6801974279460878,-0.36629613131898453
9.052967958,0.9510108748128145,1.5019706926952316,-0.49249463707129915
9.062893958,1.1495034530363382,1.319609162071366,-0.6172997644105056
9.072818958,1.344732897568289,1.1337351380323837,-0.7402790151633413
9.08274425,1.5359096352203085,0.9449655216500865,-0.8610000978469081
9.09267025,1.7222644961288516,0.753908589899628,-0.9790328809921716
9.10259525,1.9030533540026089,0.5611611886005577,-1.093951472358315
9.11252025,2.0775615812786437,0.3673063712213193,-1.2053364192749427
9.12244625,2.2451082878570343,0.1729115058382278,-1.312777020431448
9.13237125,2.4050503139651,-0.02147313577757281,-1.4158737337983205
9.14229625,2.556785949808587,-0.21531530280651537,-1.5142406594753737
9.15222225,2.699758356865619,-0.40810121150877743,-1.6075080704903577
9.16214725,2.8334586678989853,-0.599335534325905,-1.6953249594299291
9.17207225,2.9574287452289876,-0.7885409677567371,-1.7773615651164494
9.18199825,3.0712635799652044,-0.9752574277788246,-1.853311842200434
9.19192325,3.1746133189929346,-1.15904093175879,-1.9228958377896543
9.20184825,3.2671849113186,-1.3394622327911754,-1.985861942624191
9.21177425,3.3487433703398524,-1.5161052766879162,-2.0419889890613567
9.22169925,3.4191126531935065,-1.6885655541305893,-2.091088173563067
9.23162425,3.4781761622378533,-1.8564484213797325,-2.1330047869028
9.24155025,3.5258768768421453,-2.0193674626618314,-2.1676197403750974
9.25147525,3.5622171260304145,-2.1769429658031276,-2.1948508804099927
9.26140125,3.587258014270373,-2.3288005795277535,-2.2146540869166604
9.27132625,3.6011185138821302,-2.4745702158356457,-2.227024152510665
9.28125125,3.603974238173648,-2.6138852539982596,-2.231995440893858
9.29117725,3.5960559095272453,-2.746382094147715,-2.229642323450555
9.30110225,3.5776475363969342,-2.8717000985292516,-2.220079393803509
9.31102725,3.54908431270389,-2.989481947673833,-2.2034614606168
9.32095325,3.510750252558219,-3.099374427496954,-2.179983319185966
9.33087825,3.463075572628685,-3.20102965208606,-2.1498793021770046
9.34080325,3.4065338338320474,-3.294106716092583,-2.1134226092722375
9.35072925,3.3416388533634,-3.378273760513676,-2.0709244146439354
9.36065425,3.268941397558692,-3.4532104264402546,-2.0227327503562478
9.37057925,3.189025665845726,-3.5186106631044956,-1.969231163112602
9.38050525,3.1025055762826326,-3.5741858491663367,-1.910837141179647
9.39043025,3.0100208640345545,-3.6196681794862906,-1.8480003078387466
9.40035525,2.9122330056171903,-3.6548142636282748,-1.7812003776260168
9.41028125,2.8098209837196193,-3.6794088771862783,-1.7109448724357614
9.42020625,2.7034769096886766,-3.693268802927684,-1.6377665966874946
9.43013125,2.593901523054855,-3.6962466957313023,-1.5622208741448687
9.44005725,2.4817995895872595,-3.688234903204757,-1.4848825530466578
9.44998225,2.367875221214984,-3.6691691724348057,-1.4063427901016479
9.45990825,2.2528271428957836,-3.6390321723599572,-1.3272056268269166
9.46983325,2.13734393344283,-3.5978567607682854,-1.2480843732391214
9.47975825,2.0220992696864477,-3.545728925207923,-1.169597814068392
9.48968425,1.9077472062152798,-3.4827903286707924,-1.0923662518927522
9.49960925,1.7949175261775117,-3.409240394314831,-1.0170074005398635
9.50953425,1.6842112019898823,-3.325337869032413,-0.9441321414074978
9.51946025,1.576196008086025,-3.231401813220935,-0.874340155557624
9.52938525,1.4714023309000352,-3.127811973145924,-0.8082154461259601
9.53931025,1.3703192239903719,-3.0150085022423503,-0.74632176948656
9.54923625,1.2733907583447226,-2.893491008277071,-0.6891980002643956
9.55916125,1.1810127192354467,-2.763816914395004,-0.6373534643541947
9.56908625,1.0935297013790797,-2.6265991334606094,-0.5912632840511577
9.57901225,1.0112326534747509,-2.4825030662009198,-0.551363788168676
9.58893725,0.9343569211895199,-2.3322429436355443,-0.5180480459862716
9.59886225,0.8630808339196672,-2.1765775424909513,-0.4916615862828434
9.60878825,0.7975248748449735,-2.016305308714008,-0.4724983616978095
9.61871325,0.7377514658088141,-1.8522589295339884,-0.46079701517046523
9.62863825,0.6837653886180672,-1.68529939979551,-0.4567375005863668
9.63856425,0.6355148529801343,-1.5163096341575248,-0.4604381050620221
9.64848925,0.5928932091202626,-1.3461876831770674,-0.47195291596272176
9.65841425,0.555741290660958,-1.1758396177758903,-0.4912697718893741
9.66834025,0.5238503609409355,-1.0061721526963117,-0.518308733607153
9.67826525,0.4969656240031403,-0.8380850851463624,-0.5529211082788918
9.68819125,0.4747902505523814,-0.6724636299129527,-0.5948890581808502
9.69811625,0.4569898598003969,-0.5101707367591177,-0.6439258227762772
9.70804125,0.44319739053751606,-0.35203947981617173,-0.6996765799973642
9.71796725,0.4330182889980802,-0.1988656117445613,-0.7617199684608167
9.72789225,0.4260359370776801,-0.05140037740414019,-0.8295702869954844
9.73781725,0.4218172422916128,0.08965631759516238,-0.9026803811873819
9.74774325,0.41991831069671437,0.22366228888059214,-0.9804452183994733
9.75766825,0.4198901258495684,0.3500389133941719,-1.062206142741315
9.76759325,0.42128416041806604,0.46827633855612005,-1.147255790138518
9.77751925,0.42365785172198644,0.577937976453014,-1.2348436320600797
9.78744425,0.4265798777340556,0.6786642058163292,-1.3241821058621928
9.79736925,0.42963517563526316,0.7701752136137359,-1.4144532807869088
9.80729525,0.4324296506939376,0.85227291943605,-1.504816001226205
9.81722025,0.4345945288033018,0.9248419392513056,-1.5944134422942597
9.82714525,0.43579031130830104,0.9878495600348169,-1.6823810066315437
9.83707125,0.43571029582573495,1.0413447128034925,-1.7678544857242022
9.84699625,0.4340836318212371,1.0854559482940855,-1.8499784040306282
9.85692125,0.43067788495864257,1.120388436518722,-1.927914459821744
9.86684725,0.4253010897762353,1.1464200282113641,-2.0008499725981617
9.87677225,0.41780327604153444,1.1638964322555994,-2.0680062430488952
9.88669825,0.4080774600605221,1.1732255782380572,-2.1286467278729724
9.89662325,0.3960600980798751,1.1748712472274043,-2.1820849287513133
9.90654825,0.3817310045708019,1.1693460668206304,-2.2276918926855775
9.91647425,0.36511274359985685,1.1572039784792352,-2.264903220027086
9.92639925,0.3462695067801015,1.1390322959947914,-2.29322547691162
9.93632425,0.3253054965710768,1.11544348297062,-2.312241910606271
9.94625025,0.30236283897487026,1.0870667835584211,-2.3216173696793576
9.95617525,0.277619054890691,1.054539843387431,-2.321102336319401
9.96610025,0.25128412449232185,1.0185004559062607,-2.3105359861915744
9.97602625,0.2235971839619219,0.9795785626892132,-2.2898482028709974
9.98595125,0.1948228986445997,0.9383886244285582,-2.2590604902117044
9.99587625,0.1652475609370165,0.8955224628733737,-2.218285747439065
10.00580225,0.13517496471411816,0.8515426545822554,-2.1677268969789214
10.01572725,0.10492211063969413,0.8069765376414473,-2.1076743808581084
10.02565325,0.07481479821365064,0.7623108749584849,-2.038502564522364
10.03557825,0.04518316088762945,0.7179872038098281,-1.9606651056278268
10.04550325,0.016357200083057123,0.6743978912802778,-1.8746893605680437
10.05542925,-0.01133762752396426,0.6318829087344011,-1.7811699148558333
10.06535425,-0.03758471759117082,0.5907273349094422,-1.6807613361012248
10.07527925,-0.06208047223947723,0.5511595957135803,-1.5741702603638354
10.08520496,-0.08453825668019016,0.5133504479643184,-1.4621469333286703
10.09512996,-0.10469211879792757,0.47741271232112487,-1.3454763355668788
10.10505496,-0.12230023616438779,0.443401755800335,-1.224969024880121
10.11498096,-0.13714805800026186,0.41131671538562614,-1.1014518287576471
10.12490596,-0.14905111173084323,0.3811024414812941,-0.9757585180141515
10.13483096,-0.157857445633296,0.3526521250501403,-0.8487205897958212
10.14475696,-0.16344968153398673,0.3258105582094455,-0.7211582837722194
10.15468196,-0.16574665528000931,0.3003779676069443,-0.5938719486090351
10.16460696,-0.16470462794270146,0.27611435425083874,-0.46763386689761904
10.17453296,-0.16031805694587384,0.2527442720595289,-0.3431806363163122
10.18445796,-0.15261992272840882,0.22996197884264927,-0.22120619344382844
10.19438396,-0.1416816124236223,0.20743689646717148,-0.10235555486087185
10.20430896,-0.12761236702972176,0.1848193207793736,0.012780661397294883
10.21423396,-0.11055830277055352,0.16174632585289286,0.12367088216161559
10.22415996,-0.09070102122170644,0.13784781071815616,0.2298463527969217
10.23408496,-0.06825582672075362,0.11275263934395784,0.3309040104431082
10.24400996,-0.043469573732921415,0.08609482592081284,0.426508443324376
10.25393596,-0.01661817105273437,0.057519717173562454,0.5163929381681448
10.26386096,0.011996226245604884,0.026690121121434426,0.6003596339046443
10.27378596,0.042048302514040646,-0.00670767294132953,0.6782788157017192
10.28371196,0.07319290719961864,-0.04295804507157485,0.7500873978766639
10.29363696,0.1050685807229198,-0.08231043474581413,0.8157866559148317
10.30356196,0.13730124026567622,-0.12497404455422012,0.8754392757523362
10.31348796,0.16950798616919638,-0.17111293402659986,0.9291657926890484
10.32341296,0.20130099159870837,-0.22084157924896214,0.977140493564633
10.33333796,0.23229144015537853,-0.2742209704737552,1.0195868550329388
10.34326396,0.26209347759124374,-0.3312553145165834,1.0567725886517363
10.35318896,0.2903281445632562,-0.39188940193217936,1.0890043607860924
10.36311496,0.31662725764031174,-0.45600669125801857,1.1166222526928835
10.37303996,0.3406372057845275,-0.5234281543209421,1.1399940240366395
10.38296496,0.36202262941848784,-0.5939119177867099,1.1595092414826742
10.39289096,0.3804699491018296,-0.6671537266884072,1.1755733326256046
10.40281596,0.39569071095737096,-0.7427882454791133,1.1886016240614685
10.41274096,0.4074247164820415,-0.8203912011885824,1.1990134208309409
10.42266696,0.41544290533120615,-0.899482361597509,1.2072261828246007
10.43259196,0.4195499610639199,-0.9795293291374306,1.2136498520938042
10.44251696,0.419586611611116,-1.0599521187297083,1.2186813832696286
10.45244296,0.41543159824066045,-1.1401284753682546,1.2226995272718524
10.46236796,0.4070032888237742,-1.219399875441973,1.226059916014534
10.47229296,0.3942609130320177,-1.2970781451247453,1.2290904928575372
10.48221896,0.3772053986353375,-1.3724526199600018,1.2320873303129878
10.49214396,0.3558797895245137,-1.4447977619715469,1.2353108733530533
10.50206996,0.3303692278999919,-1.5133811438762277,1.2389826438921527
10.51199496,0.30080048578114904,-1.5774717039017494,1.2432824396499176
10.52191996,0.2673410349405738,-1.6363481692927584,1.2483460582581816
10.53184596,0.23019764957345343,-1.689307542191972,1.2542635744982165
10.54177096,0.18961454219622312,-1.7356735387821325,1.2610781943322042
10.55169596,0.14587103998287634,-1.7748048718116582,1.2687857037259174
10.56162196,0.09927881550341024,-1.8061032679772788,1.277334523503869
10.57154696,0.05017869228041304,-1.829021114779611,1.286626374315801
10.58147196,-0.0010629482950383655,-1.8430686358788366,1.2965175488386116
10.59139796,-0.05405812606467519,-1.84782049926001,1.3068207819307216
10.60132296,-0.10840154824155708,-1.8429217686640513,1.3173077036979493
10.61124796,-0.16367517689350167,-1.828093116138339,1.3277118552639589
10.62117396,-0.21945302518689438,-1.8031352227093174,1.3377322422776878
10.63109896,-0.27530612302880014,-1.7679323052685236,1.3470373965308313
10.64102496,-0.3308075864360374,-1.7224547203872278,1.3552699110768311
10.65094996,-0.38553771957089944,-1.6667606090741742,1.3620514084338362
10.66087496,-0.4390890743994448,-1.6009965596918454,1.3669878944179947
10.67080096,-0.4910713906431539,-1.5253972790978643,1.3696754418517505
10.68072596,-0.5411163380749067,-1.4402842747260467,1.369706139262717
10.69065096,-0.5888819840630837,-1.3460635628022506,1.3666742305715174
10.70057696,-0.6340569115371019,-1.2432224298495564,1.3601823637606059
10.71050196,-0.6763639163764955,-1.132325285567704,1.3498478608545936
10.72042696,-0.715563218752281,-1.0140086548271359,1.335308919386375
10.73035296,-0.7514551301594183,-0.8889753650262278,1.316230657523843
10.74027796,-0.7838821266797374,-0.7579879926975063,1.292310920846119
10.75020296,-0.8127302893769702,-0.6218616402582213,1.2632857769580728
10.76012896,-0.8379300846924737,-0.48145612044558367,1.2289346326978872
10.77005396,-0.8594564711883371,-0.3376676325596123,1.1890849158162218
10.77997896,-0.8773283334454207,-0.19142002127573893,1.143616267755662
10.78990496,-0.8916072583695233,-0.04365571520730189,1.0924641966785742
10.79982996,-0.9023956825399666,0.10467355196451568,1.0356231410863683
10.80975596,-0.9098344509574542,0.2526161306297815,0.9731488953885478
10.81968096,-0.9140998375553215,0.39922984470782197,0.9051603506495256
10.82960596,-0.9154000862852754,0.5435912702986124,0.8318405072915246
10.83953196,-0.9139715385517317,0.6848047927316295,0.7534367223121212
10.84945696,-0.9100744181953263,0.822011332779242,0.6702601617976169
10.85938196,-0.9039883489755874,0.954396635203498,0.582684440202693
10.86930796,-0.8960076814023714,1.0811990157495222,0.4911434408912307
10.87923296,-0.8864367057286352,1.2017164663085753,0.3961283269838892
10.88915796,-0.8755848260328835,1.3153130228780492,0.29818376584921696
10.89908396,-0.8637617668329151,1.4214243079026665,0.19790340281960037
10.90900896,-0.8512728789717059,1.519562167950501,0.09592462948511535
10.91893396,-0.8384146061749813,1.609318339282969,-0.0070772998722460605
10.92885996,-0.8254701683539504,1.6903670873075771,-0.1103957424566448
10.93878496,-0.8127055128413405,1.7624667808169554,-0.21329966295218666
10.94871096,-0.8003655802815358,1.8254603781107137,-0.31504107524665886
10.95863596,-0.7886709275133487,1.879274819388919,-0.41486284702683396
10.96856096,-0.7778147451688986,1.923919337925724,-0.5120067782569813
10.97848696,-0.7679603027542644,1.9594827210550063,-0.6057218589502085
10.98841196,-0.7592388487722885,1.9861295703952726,-0.6952726063766875
10.99833696,-0.7517479881975193,2.00409562849978,-0.779947376955158
11.00826296,-0.745550554481643,2.0136822558881184,-0.8590665438615864
11.01818796,-0.7406739882459834,2.015250158035356,-0.9319904282747381
11.02811296,-0.7371102297127695,2.0092124762377885,-0.9981268705064577
11.03803896,-0.7348161264980116,1.9960273689714085,-1.056938327247522
11.04796396,-0.7337143525171662,1.9761902206594426,-1.1079483828724501
11.05788996,-0.7336948275101889,1.9502256217161382,-1.1507475662441926
11.06781496,-0.7346166202507974,1.9186792664861425,-1.1849983700662168
11.07773996,-0.7363103119991451,1.8821099135949932,-1.2104393783857996
11.08766621,-0.7385807902176037,1.8410815456915617,-1.226888420584619
11.09759121,-0.7412104360084097,1.796155852215525,-1.234244688040525
11.10751621,-0.7439626622726065,1.7478851400810453,-1.2324897722882364
11.11744221,-0.7465857534960311,1.6968057549192401,-1.2216876088028772
11.12736721,-0.7488169526363123,1.6434320729130494,-1.2019833351626474
11.13729221,-0.7503867359952839,1.5882511033955726,-1.1736010935914507
11.14721821,-0.7510232132797298,1.5317177270548377,-1.1368408250253086
11.15714321,-0.7504565874103711,1.4742505841042386,-1.092074115968912
11.16706921,-0.74842360731605,1.4162286206407813,-1.0397391720322997
11.17699421,-0.7446719471748356,1.3579882987829281,-0.9803350040705273
11.18691921,-0.7389644472343053,1.2998214757622522,-0.9144149243413293
11.19684521,-0.7310831540340754,1.2419739569767116,-0.842579460279253
11.20677021,-0.7208331010844324,1.1846447257713462,-0.7654688009294373
11.21669521,-0.7080457745170404,1.1279858466405006,-0.6837548946024157
11.22662121,-0.6925822118742063,1.0721030284389976,-0.5981333163852534
11.23654621,-0.67433568633472,1.0170568216248246,-0.5093150229078113
11.24647121,-0.6532339338895295,0.9628644112052042,-0.41801811081726814
11.25639721,-0.6292408879189242,0.9095019574982441,-0.3249596942066048
11.26632221,-0.6023578945228478,0.8569074314274732,-0.23084801318954984
11.27624821,-0.5726243923522104,0.8049838896101116,-0.13637488018574934
11.28617321,-0.5401180515394054,0.7536031357196019,-0.04220856256715827
11.29609821,-0.5049543765358286,0.7026097171517515,0.0510128093221649
11.30602421,-0.46728578657044273,0.6518252089986024,0.14268723046027684
11.31594921,-0.4273001949109431,0.6010527402442712,0.23225413844179404
11.32587421,-0.38521911436247946,0.5500817196774112,0.31919900341711127
11.33580021,-0.3412953219084016,0.4986927211176959,0.4030571456847701
11.34572521,-0.2958101205528637,0.44666248905873424,0.4834167485216446
11.35565021,-0.24907024149378645,0.3937690265426905,0.5599210480320571
11.36557621,-0.20140443455957635,0.3397967266423914,0.6322696973107528
11.37550121,-0.15315979901653756,0.28454150672896394,0.7002193183309823
11.38542721,-0.1046979101481042,0.22781590002400065,0.7635832709212991
11.39535221,-0.056390799230349786,0.16945405157302298,0.8222306830866336
11.40527721,-0.008616845233193943,0.10931655684662908,0.8760847995219785
11.41520321,0.038243364903760055,0.047295072989896395,0.9251207141840694
11.42512821,0.08381115457768398,-0.01668337250785512,0.9693625576153121
11.43505321,0.12771380762718063,-0.0826524524036388,1.008880210744674
11.44497921,0.16958851038439643,-0.1506030643040954,1.04378561521795
11.45490421,0.20908615231578645,-0.22048037955308988,1.0742287472107488
11.46482921,0.24587495705977114,-0.2921814803191986,1.1003933181974517
11.47475521,0.2796439193013301,-0.36555364107115457,1.1224922628826224
11.48468021,0.31010602530916603,-0.44039330197740106,1.1407630716037347
11.49460521,0.33700123649309827,-0.5164457725617139,1.1554630218963067
11.50453121,0.36009921626927005,-0.5934056943858462,1.1668643614414083
11.51445621,0.3792017810331345,-0.6709182815950403,1.1752494922465797
11.52438221,0.39414505641870484,-0.7485813477011263,1.180906203739501
11.53430721,0.40480132062729757,-0.8259481158392213,1.1841230006239445
11.54423221,0.4110805176940097,-0.9025307978756965,1.1851845698651118
11.55415821,0.4129314251521605,-0.9778049152802119,1.1843674298132156
11.56408321,0.41034246249290696,-1.0512143218867862,1.181935802906798
11.57400821,0.403342128866984,-1.1221768760175566,1.1781377513833255
11.58393421,0.39199906044192856,-1.1900906974893755,1.1732016129494525
11.59385921,0.3764216996275445,-1.2543409342418166,1.1673327706437877
11.60378421,0.3567575700804571,-1.314306953931533,1.1607107885131065
11.61371021,0.3331921531919423,-1.3693698677894384,1.1534869425057928
11.62363521,0.30594736392888733,-1.418920287190366,1.145782174156908
11.63356121,0.2752796267276506,-1.462366207698288,1.1376854927893967
11.64348621,0.24147755583832115,-1.499140911010888,1.1292528493837892
11.65341121,0.2048592490909627,-1.5287107725954023,1.1205065012681141
11.66333721,0.16576920931176303,-1.5505828621876858,1.1114348809884096
11.67326221,0.12457491327990536,-1.5643122257421165,1.1019929753686277
11.68318721,0.08166305397919556,-1.5695087405848178,1.0921032126935957
11.69311321,0.03743548788649111,-1.5658434400487153,1.0816568483170232
11.70303821,-0.007695074850258533,-1.5530542095810287,1.0705158327999031
11.71296421,-0.0533095932811019,-1.5309507634431343,1.0585151422380583
11.72288921,-0.09898738126977981,-1.499418820194766,1.0454655472395211
11.73281421,-0.1443108993803716,-1.4584234065824242,1.0311567941398396
11.74274021,-0.18887059057527933,-1.4080112331111685,1.0153611687687554
11.75266521,-0.23226969177371334,-1.3483120997386309,0.9978374091240919
11.76259021,-0.2741289488408761,-1.2795393058148465,0.9783349285717973
11.77251621,-0.3140911596113043,-1.2019890538117715,0.9565983055078887
11.78244121,-0.3518254683072024,-1.1160388510924348,0.9323719886991425
11.79236621,-0.3870313352281577,-1.0221449277764116,0.9054051600490856
11.80229221,-0.4194421080370571,-0.920838701615812,0.8754566890732499
11.81221721,-0.4488281256747043,-0.8127223326815806,0.8423001070422093
