Time (s),Acceleration x (m/s^2),Acceleration y (m/s^2),Acceleration z (m/s^2)
6.003383444,0.3445664644,-4.771288395,0.4881358147
6.008138392,0.2967100143,-4.821537495,0.9332008362
6.012893288,0.3206382394,-4.91007185,1.330409408
6.017648184,0.4139583111,-5.039284706,1.689332843
6.022403132,0.5742774606,-5.156532764,2.024327993
6.027158028,0.7824530005,-5.288137913,2.258824587
6.031912924,0.9379864931,-5.438885689,2.55792737
6.036667819,1.100698471,-5.575276852,2.816352367
6.041422767,1.287338614,-5.72123909,3.081955671
6.046177663,1.493121386,-5.824130535,3.369094372
6.050932559,1.780260086,-5.941378593,3.613162279
6.055687455,2.053041935,-5.857629776,3.694518089
6.060442403,2.285145521,-5.608776093,3.684946775
6.065197299,2.452643156,-5.38624382,3.802195072
6.069952194,2.553141832,-5.218746185,3.979264021
6.07470709,2.481357098,-5.161318302,4.153940201
6.079462038,2.294716835,-5.166104317,4.273581028
6.084216934,2.112862349,-5.187639713,4.177868366
6.08897183,1.641476393,-5.118247509,3.792623997
6.093726726,1.141376376,-5.125426292,3.302095175
6.098481674,0.6245267391,-5.163711071,2.737389088
6.103236569,0.06939185411,-5.204389095,2.230110645
6.107991465,-0.3756731451,-5.216353416,1.899901152
6.112746361,-0.6484549642,-5.175675392,1.706082582
6.117501309,-0.7680960894,-4.914857864,1.509871125
6.122256205,-0.2895315289,-4.555934429,1.758724689
6.127011101,0.6604190469,-4.177868366,2.464607239
6.131765996,2.258824587,-4.079762459,4.048655987
6.136520944,4.070191383,-4.36211586,6.285944939
6.14127584,5.340780258,-4.828716278,7.72163868
6.146030736,6.183053493,-5.505885124,7.692924976
6.150785684,6.702296257,-6.41037178,6.448657036
6.15554058,6.92243576,-7.690532207,4.802394867
6.160295476,7.326822758,-9.217152596,3.73998189
6.165050371,8.109275818,-10.88734341,3.426522017
6.169805267,9.090332985,-12.81356525,3.663411379
6.174560215,10.08335495,-15.05324745,3.924229145
6.179315111,11.16251755,-17.52024651,4.448257446
6.184070007,11.86361504,-19.92742729,4.847858906
6.188824903,12.4115715,-22.05943108,4.713860512
6.193579851,12.81835079,-23.92583275,3.955335855
6.198334746,13.23709488,-25.18924332,2.703889608
6.203089642,13.52662659,-25.41895485,1.361516118
6.20784459,13.89751434,-24.31347084,-0.06221338734
6.212599486,13.80180073,-21.78186417,-1.141376376
6.217354382,13.28973675,-18.5611248,-1.548156261
6.222109278,12.11486149,-15.24467278,-1.29451704
6.226864226,10.67677498,-12.2919302,-0.6532405615
6.231619121,9.279366493,-9.824930191,0.06460621208
6.236374017,7.831708431,-7.841279984,0.6963114142
6.241128913,6.302694798,-6.254838467,1.24666059
6.245883861,4.847858906,-5.022534847,1.818545222
6.250638757,3.83569479,-4.28315258,1.820937991
6.255393653,2.928814888,-3.864408493,1.689332843
6.260148601,2.335394859,-3.646661758,1.529013634
6.264903496,1.856830359,-3.656233072,1.179661512
6.269658392,1.584048629,-3.751945972,0.7896314859
6.274413288,1.347159147,-3.905086517,0.433100909
6.279168236,1.249053478,-4.134797573,0.02632104978
6.283923132,1.521835208,-4.532006264,-0.2009970993
6.288678028,1.811366796,-4.965106964,-0.1028913707
6.293432976,2.012363911,-5.474778175,0.0933200866
6.298187871,2.108076811,-6.092126369,0.09571290761
6.302942767,2.208575249,-6.726224422,0.2608176768
6.307697663,2.23728919,-7.338787079,0.6197410822
6.312452611,2.091326952,-7.958528042,0.9667003751
6.317207507,1.904686809,-8.539983749,1.174875975
6.321962403,1.615155339,-9.171689034,1.203589797
6.326717351,1.426122308,-9.753145218,1.210768223
6.331472246,1.308874011,-10.37049294,1.225125194
6.336227142,1.239482164,-10.94477081,1.325623751
6.340982038,1.239482164,-11.42572784,1.529013634
6.345736986,1.292124271,-11.92104244,1.823330879
6.350491882,1.35912323,-12.30867958,2.143969059
6.355246778,1.524227977,-12.5623188,2.376072884
6.360001674,1.746760488,-12.7250309,2.560320139
6.364756621,2.012363911,-12.61974621,2.758924484
6.369511517,2.400001049,-12.28235817,3.067598581
6.374266413,2.849851847,-11.75115204,3.366701365
6.379021309,3.230310678,-11.01655579,3.553341627
6.383776257,3.495913982,-10.19342422,3.586841106
6.388531153,3.570091486,-9.320044518,3.37387991
6.393286049,3.534198999,-8.537590981,3.000599623
6.398040996,3.43609333,-7.786244869,2.665604353
6.402795892,3.30927372,-7.106683254,2.342573404
6.407550788,3.115455151,-6.491727829,2.074577332
6.412305736,2.933600664,-5.97727108,1.892722726
6.417060632,2.773281336,-5.513063431,1.682154298
6.421815528,2.689532757,-5.10149765,1.495514154
6.426570424,2.591426849,-4.752145767,1.349551916
6.431325371,2.514856577,-4.457828522,1.227517962
6.436080267,2.459821701,-4.14197588,1.143769264
6.440835163,2.452643156,-3.878765583,1.131805062
6.445590111,2.443071842,-3.64426899,1.217946768
6.450345007,2.517249346,-3.46959281,1.380658627
6.455099903,2.656033039,-3.323630571,1.631905079
6.459854799,2.780459881,-3.24466753,1.935793519
6.464609746,2.82831645,-3.27577424,2.218146563
6.469364642,2.861815929,-3.407379389,2.478964329
6.474119538,2.97427845,-3.562912941,2.591426849
6.478874486,3.206382275,-3.797409534,2.684746981
6.483629382,3.591626883,-4.094119549,2.74935317
6.488384278,4.204189301,-4.486542225,2.708675146
6.493139174,4.953142643,-4.888536453,2.775674343
6.497894121,5.615954876,-5.25942421,2.993421078
6.502649017,6.015556335,-5.651846886,3.077169895
6.507403913,6.228517532,-6.015556335,2.98863554
6.512158861,6.317051888,-6.34815836,2.947957516
6.516913757,6.350551128,-6.671189308,3.022135019
6.521668653,6.357729912,-6.975078106,3.163311481
6.526423549,6.379265308,-7.245467186,3.249453068
6.531178496,6.324230194,-7.544569969,3.381058455
6.535933392,6.29790926,-7.86281538,3.462414265
6.540688288,6.290730953,-8.238488197,3.445664644
6.545443236,6.173482418,-8.640482903,3.352344513
6.550198132,5.938985825,-9.044869423,3.16570425
6.554953028,5.687739372,-9.521040916,2.773281336
6.559707924,5.362315655,-10.02592659,2.225325108
6.564462871,4.948357105,-10.54995537,1.600798368
6.569217767,4.53918457,-11.08833981,1.019342422
6.573972663,3.984049797,-11.63868904,0.5383850932
6.578727611,3.268595695,-12.15793228,0.1076770201
6.583482507,2.639283419,-12.70349503,-0.4666004181
6.588237403,2.158325911,-13.22273827,-1.0863415
6.592992351,2.031506538,-13.72283745,-1.232303619
6.597747246,2.335394859,-14.21336651,-0.6771687865
6.602502142,2.672782898,-14.64168167,0.3349951804
6.607257038,2.785245657,-14.99342632,1.306481123
6.612011986,2.66799736,-15.31167221,2.20618248
6.616766882,2.359323025,-15.55574036,2.811566591
6.621521778,1.883151412,-15.7304163,3.182454109
6.626276726,1.34237349,-15.85484314,3.314059258
6.631031621,0.6891329288,-15.89791393,3.354737282
6.635786517,0.1890329868,-16.05823326,2.947957516
6.640541413,-0.1363908947,-16.25444412,1.840080619
6.645296361,-0.6675975323,-16.66840172,-0.5623133183
6.650051257,-0.6915257573,-17.1804657,-2.919243574
6.654806153,0.4809573591,-17.6446743,-3.718446493
6.659561101,2.471785784,-17.70449448,-2.639283419
6.664315996,4.261617184,-17.23071671,-0.8685946465
6.669070892,5.467599869,-16.45544052,0.5216353536
6.67382584,6.305087566,-15.5677042,1.174875975
6.678580736,6.912864685,-14.74217987,1.225125194
6.683335632,7.393822193,-14.04108334,0.8733802438
6.68809058,7.879564762,-13.3902359,0.3876372576
6.692845476,8.307880402,-12.82074356,0.04067798331
6.697600371,8.580661774,-12.29671574,-0.05024927482
6.702355267,8.652446747,-11.86840057,0.09092725813
6.707110215,8.602197647,-11.55972576,0.4019941986
6.711865111,8.580661774,-11.37547874,0.7968099117
6.716620007,8.580661774,-11.22473145,1.174875975
6.721374955,8.575876236,-11.06441212,1.447657704
6.726129851,8.535198212,-10.861022,1.593619823
6.730884746,8.425128937,-10.6480608,1.612762451
6.735639694,8.362915039,-10.39202881,1.636690736
6.74039459,8.322237015,-10.07378292,1.689332843
6.745149486,8.26241684,-9.765109062,1.780260086
6.749904382,8.269595146,-9.470791817,1.959721804
6.75465933,8.26241684,-9.238688469,2.20618248
6.759414226,8.190631866,-9.083154678,2.543570518
6.764169121,8.08295536,-8.946763992,2.933600664
6.768924069,7.872386456,-8.805587769,3.278167009
6.773678965,7.523034573,-8.740981102,3.445664644
6.778433861,7.006184578,-8.810373306,3.235096216
6.783188809,6.345765591,-9.03051281,2.79720974
6.787943705,5.618347645,-9.399007797,2.232503414
6.792698601,4.93878603,-9.865608215,1.835294962
6.797453496,4.419543266,-10.36331463,1.663011789
6.802208444,4.108476639,-10.87059307,1.660618901
6.80696334,3.881158352,-11.36112213,1.756331801
6.811718236,3.744767427,-11.78943729,1.90229404
6.816473184,3.668197155,-12.22253799,2.036292076
6.82122808,3.64426899,-12.62213898,2.148754835
6.825982976,3.672982693,-13.02174091,2.230110645
6.830737924,3.713660717,-13.3902359,2.304288149
6.835492819,3.687339783,-13.67976665,2.390429735
6.840247715,3.608376503,-13.96212006,2.54117775
6.845002663,3.519842148,-14.16790295,2.689532757
6.849757559,3.414557934,-14.28275871,2.76371026
6.854512455,3.215953588,-14.26840115,2.744567633
6.859267403,3.012563705,-14.05543995,2.644068956
6.864022299,2.986242771,-13.77069473,2.435893536
6.868777194,2.967100143,-13.28016567,2.20618248
6.87353209,2.945564747,-12.64606762,2.06261301
6.878287038,2.991028309,-12.02154064,1.954936147
6.883041934,3.007778168,-11.45204926,1.945364833
6.88779683,3.007778168,-10.82273674,2.072184324
6.892551778,3.16570425,-10.24367332,2.189432621
6.897306674,3.567698479,-9.667003632,2.14157629
6.902061569,4.082155228,-9.047262192,1.232303619
6.906816517,4.804787636,-8.106883049,-3.263810158
6.911571413,5.505885124,-7.178467751,-6.637690067
6.916326309,5.64227581,-6.635297298,-6.431907177
6.921081205,5.312066078,-6.372086525,-5.10149765
6.925836153,4.850251675,-6.379265308,-3.574877024
6.930591049,4.302295208,-6.479763508,-2.483749866
6.935345944,3.335594654,-6.778866768,-1.847259045
6.940100892,2.249253273,-7.223931789,-1.320838094
6.944855788,1.416550994,-7.903493404,-0.6436693072
6.949610684,0.9571290612,-8.630910873,0.1100698411
6.954365632,0.8398807645,-9.221938133,0.8925228715
6.959120528,0.9092726111,-9.760323524,1.612762451
6.963875424,1.024128079,-10.18863869,2.273181438
6.968630371,1.229910851,-10.52124119,2.845066071
6.973385267,1.361516118,-10.75813103,3.21356082
6.978140163,1.289731383,-10.9112711,3.333201885
6.982895111,1.016949654,-10.88973618,3.318845034
6.987650007,0.6340979934,-10.68395329,3.077169895
6.992404903,0.2560320199,-10.30588722,2.761317253
6.997159799,-0.0382851623,-9.901499748,2.474178553
7.001914746,-0.2679961324,-9.446864128,2.368894339
7.006669642,-0.3038884699,-8.963513374,2.553141832
7.011424538,-0.2177468538,-8.444271088,2.837887764
7.016179486,-0.0933200866,-7.896314621,3.16570425
7.020934382,0.1148554832,-7.233502865,3.517449379
7.025689278,0.337387979,-6.441478729,3.708875179
7.030444226,0.5647061467,-5.639883041,3.483949661
7.035199121,0.8638089895,-5.022534847,3.012563705
7.039954017,1.270588875,-4.433900356,2.148754835
7.044708965,1.785045743,-3.93140769,0.9547362328
7.049463861,2.208575249,-3.687339783,-0.1842473447
7.054218757,2.282752752,-3.668197155,-0.9547362328
7.058973705,1.907079697,-3.799802303,-1.380658627
7.063728601,1.141376376,-3.933800459,-1.607976794
7.068483496,0.3086741269,-4.094119549,-1.584048629
7.073238392,-0.4785645306,-4.14197588,-1.351944804
7.07799334,-1.208375454,-4.182653904,-0.9667003751
7.082748236,-1.880758643,-4.189832687,-0.4833501875
7.087503132,-2.222932339,-4.287938118,0.05742774159
7.09225808,-2.277967215,-4.462614059,0.6580262184
7.097012976,-2.155933142,-4.630111694,1.339980721
7.101767871,-1.868794441,-4.783252239,1.93340075
7.106522819,-1.50269258,-4.929214478,2.376072884
7.111277715,-1.048056364,-5.111069202,2.778067112
7.116032611,-0.4785645306,-5.324030399,3.230310678
7.120787559,0.1579262912,-5.525027275,3.627519131
7.125542455,0.8638089895,-5.702096462,3.924229145
7.130297351,1.481157184,-5.790630817,4.173082829
7.135052299,1.868794441,-5.814558983,4.307080746
7.139807194,2.021935225,-5.759523869,4.244867325
7.14456209,1.787438512,-5.558526993,4.003192425
7.149316986,1.31126678,-5.419743061,3.603590965
7.154071934,0.7274180651,-5.309673309,3.079562664
7.15882683,0.2249253243,-5.266602516,2.689532757
7.163581726,-0.1076770201,-5.230710506,2.490928411
7.168336674,-0.2751746178,-5.197210789,2.330609322
7.173091569,-0.394815743,-5.182853699,2.282752752
7.177846465,-0.5575276613,-4.981856823,2.215753794
7.182601413,-0.6293123364,-4.744967461,2.127219439
7.187356309,-0.5694918036,-4.386044025,2.215753794
7.192111205,-0.1555334777,-3.842873096,2.945564747
7.196866153,0.7417750359,-3.486342669,4.429114819
7.201621049,1.627119422,-3.187239647,5.958128452
7.206375944,2.478964329,-3.08434844,7.037291527
7.211130892,3.050848961,-3.062813044,7.326822758
7.215885788,3.455235958,-3.14895463,7.046862602
7.220640684,3.826123476,-3.390629768,6.295516491
7.22539558,4.187439442,-4.034298897,5.632704735
7.230150528,4.895715237,-5.19481802,5.367101192
7.234905424,6.01316309,-6.821937561,5.187639713
7.239660319,7.317251682,-9.049654961,5.228317261
7.244415267,8.800801277,-11.86361504,5.383851051
7.249170163,10.12881851,-15.08913994,5.64227581
7.253925059,11.21515942,-18.5730896,5.615954876
7.258680007,12.28714466,-22.37528419,5.398207664
7.263434903,12.95952702,-26.02673149,4.84546566
7.268189799,14.04108334,-28.97229576,3.732803345
7.272944746,15.0723896,-31.25026321,1.85443759
7.277699642,16.35733604,-31.60918617,-0.418743968
7.282454538,17.62074661,-29.70928574,-2.52682066
7.287209486,17.41257095,-25.53141785,-3.957728624
7.291964382,15.47677708,-20.59502411,-3.761517286
7.296719278,13.09591866,-16.18744469,-2.46221447
7.301474226,10.76530933,-12.65803146,-1.074377418
7.306229121,8.652446747,-9.966106415,0.1124626622
7.310984017,6.826723099,-7.891529083,1.002592683
7.315738965,5.25942421,-6.266802311,1.935793519
7.320493861,3.919443607,-4.98903513,2.627319336
7.325248757,3.055634499,-4.223331928,2.620140791
7.330003653,2.46221447,-3.826123476,2.273181438
7.334758601,2.165504456,-3.696911097,1.868794441
7.339513496,1.93340075,-3.728017569,1.39022994
7.344268392,1.818545222,-3.905086517,0.8350951076
7.34902334,1.964507341,-4.280759811,0.3972085714
7.353778236,2.122433662,-4.804787636,-0.06699903309
7.358533132,2.299502611,-5.304887772,-0.4283152521
7.36328808,2.490928411,-5.800201893,-0.9523434043
7.368042976,2.68713975,-6.245266914,-1.363908887
7.372797871,2.770888567,-6.800402164,-1.500299811
7.377552819,2.672782898,-7.439285755,-1.261017561
7.382307715,2.428714991,-7.980063438,-0.6029912829
7.387062611,2.124826431,-8.475378036,0.01196411345
7.391817559,1.976471543,-9.049654961,0.4283152521
7.396572455,1.828116536,-9.578469276,0.7992027402
7.401327351,1.713261008,-10.09531879,1.110269666
7.406082246,1.562513232,-10.58106136,1.304088354
7.410837194,1.361516118,-11.04287624,1.488335729
7.41559209,1.189232826,-11.45204926,1.737189293
7.420347038,0.9619147182,-11.87557888,2.084148407
7.425101934,0.7968099117,-12.18425274,2.337787628
7.42985683,0.6053841114,-12.37567902,2.593819857
7.434611726,0.5120640397,-12.40917778,2.79720974
7.439366674,0.457029134,-12.30150127,2.895315409
7.444121569,0.5551348329,-11.90668583,2.847458839
7.448876465,0.8685946465,-11.27019501,2.651247501
7.453631413,1.31126678,-10.47817039,2.495713949
7.458386309,1.710868239,-9.6693964,2.361716032
7.463141205,2.024327993,-8.925228119,2.165504456
7.467896153,2.249253273,-8.240880966,1.957328916
7.472651049,2.344966173,-7.654639721,1.730010748
7.477405944,2.392822742,-7.113861561,1.552941918
7.482160892,2.419143677,-6.637690067,1.399801254
7.486915788,2.409572363,-6.21894598,1.332802176
7.491670684,2.378465652,-5.867201328,1.308874011
7.49642558,2.414358139,-5.553741455,1.31126678
7.501180528,2.402393818,-5.261816978,1.32801652
7.505935424,2.423929453,-5.046463013,1.339980721
7.510690371,2.459821701,-4.835894585,1.433300734
7.515445267,2.490928411,-4.666004181,1.564906001
7.520200163,2.522035122,-4.551148891,1.732403636
7.524955059,2.605783939,-4.443471432,1.945364833
7.529710007,2.660818815,-4.395615101,2.311466694
7.534464903,2.713460922,-4.371686935,2.919243574
7.539219799,2.790031195,-4.350151539,3.806980848
7.543974746,2.947957516,-4.316651821,4.488935471
7.548729642,3.18006134,-4.390829563,4.843072891
7.553484538,3.510270834,-4.52482748,4.984249592
7.558239486,3.845266104,-4.771288395,5.127819061
7.562994382,4.335794449,-5.046463013,4.888536453
7.567749278,4.840680122,-5.355136871,4.508078098
7.572504226,5.359922886,-5.745167255,4.180261135
7.577259121,5.821737289,-6.113661766,3.955335855
7.582014017,6.199803352,-6.48933506,3.864408493
7.586768965,6.453442574,-6.872186661,3.790230989
7.591523861,6.544369698,-7.235895634,3.742374659
7.596278757,6.56829834,-7.5924263,3.728017569
7.601033705,6.515655994,-7.925028801,3.763910055
7.605788601,6.355337143,-8.260024071,3.778266907
7.610543496,6.075376511,-8.630910873,3.634697676
7.615298392,5.7571311,-8.975478172,3.412165165
7.62005334,5.24506712,-9.262616158,2.912065268
7.624808236,4.55354166,-9.616754532,1.988435626
7.629563132,3.677768469,-9.942177773,0.7513462901
7.63431808,2.608176708,-10.2723875,-0.7465606928
7.639072976,1.485942841,-10.61456108,-2.344966173
7.643827871,0.8327022791,-10.9184494,-3.534198999
7.648582819,1.196411371,-11.23430252,-3.153740168
7.653337715,1.988435626,-11.526227,-1.682154298
7.658092611,2.567498684,-11.81336498,-0.009571290575
7.662847559,2.773281336,-12.13161087,1.256231904
7.667602455,2.780459881,-12.46899891,2.222932339
7.672357351,2.579462767,-12.80399418,2.888136864
7.677112299,2.167897224,-13.10548973,3.227917671
7.681867194,1.653440475,-13.38544941,3.292523861
7.68662209,1.095912814,-13.61994648,3.141776085
7.691377038,0.6843472719,-13.81376553,2.931207657
7.696131934,0.5072783828,-14.06501102,2.447857618
7.70088683,0.7250252366,-14.32343674,1.945364833
7.705641726,1.339980721,-14.67039585,1.299302697
7.710396674,2.321038008,-15.00299835,0.6580262184
7.715151569,3.591626883,-15.37149239,-0.1770688742
7.719906465,5.132604599,-15.7806654,-1.091127157
7.724661413,6.721438885,-16.00798416,-1.643869162
7.729416309,7.905886173,-15.91944885,-1.51944232
7.734171205,8.494520187,-15.55813313,-0.9714859724
7.738926153,8.647661209,-14.99581909,-0.3493520916
7.743681049,8.693124771,-14.32822227,0.05264209956
7.748435944,8.738588333,-13.56969738,0.2560320199
7.753190892,8.841479301,-12.8374939,0.342173636
7.757945788,8.894122124,-12.21775246,0.3493520916
7.762700684,8.898907661,-11.67218876,0.2919243574
7.767455632,8.867800713,-11.24865913,0.1914258152
7.772210528,8.860622406,-10.93759251,0.2703889608
7.776965424,8.772088051,-10.67677498,0.4259224236
7.781720319,8.628518105,-10.49252701,0.5359922647
7.786475267,8.484949112,-10.31785107,0.5934200287
7.791230163,8.274380684,-10.14317513,0.6173482537
7.795985059,8.142775536,-9.994820595,0.5886343718
7.800740007,8.044670105,-9.87757206,0.471386075
7.805494903,8.008777618,-9.753145218,0.2991028428
7.810249799,8.173882484,-9.750752449,0.1268195957
7.815004746,8.444271088,-9.8201437,0.2775674164
7.819759642,8.664410591,-10.04028416,0.6628118753
7.824514538,8.817551613,-10.3776722,1.306481123
7.829269486,8.853444099,-10.85862923,1.983649969
7.834024382,8.659625053,-11.29172993,2.421536446
7.838779278,8.063812256,-11.77029419,2.581855536
7.843534226,7.255038261,-12.22493076,2.598605394
7.848289121,6.391229153,-12.66999626,2.478964329
7.853044017,5.615954876,-13.03370476,2.423929453
7.857798965,4.905286312,-13.41894913,2.352144718
7.862553861,4.331008911,-13.75155163,2.227717876
7.867308757,3.984049797,-14.04586887,2.136790514
7.872063653,3.73998189,-14.27797318,2.199003935
7.876818601,3.577269793,-14.3689003,2.404786825
7.881573496,3.371487141,-14.41197109,2.646461725
7.886328392,3.235096216,-14.28515148,2.868994236
7.89108334,3.022135019,-14.05065441,3.05324173
7.895838236,2.785245657,-13.74198055,3.215953588
7.900593132,2.457428932,-13.33759308,3.390629768
7.90534808,2.105684042,-12.88295746,3.572484255
7.910102976,1.696511269,-12.36371422,3.675375462
7.914857871,1.308874011,-11.7966156,3.723232031
7.919612819,0.9882357717,-11.18883896,3.759124279
7.924367715,0.8470591903,-10.59302616,3.881158352
