Time (s),Acceleration x (m/s^2),Acceleration y (m/s^2),Acceleration z (m/s^2)
9.004601457,1.3571629761477348,0.2749813105839649,0.6192274901081579
9.009356717,1.4859387405455937,0.21385834964502853,0.6711662243457742
9.014111978,1.6099778126256703,0.15368414446776965,0.7231116022668396
9.018867238,1.728319503386226,0.09452893805518685,0.7750050518543669
9.023622499,1.8400076545194728,0.036453175631705775,0.8267814565059673
9.028377759,1.944097589983768,-0.020492186475459792,0.8783684608960095
9.033132967,2.0396632401263166,-0.07626530420269964,0.9296858658394942
9.037888228,2.1258043933232034,-0.1308330111775786,0.9806451277311595
9.042643488,2.201654026575234,-0.18417033513340172,1.0311489766551796
9.047398749,2.266385663102057,-0.23625997309843935,1.0810911654880202
9.052154009,2.319220701786189,-0.2870917318435448,1.1303563602666982
9.056909269,2.3594356604090976,-0.3366619386939819,1.1788201797857565
9.06166453,2.386369272073207,-0.3849728264500948,1.2263493898404112
9.06641979,2.399429372103816,-0.4320318948989899,1.2728022547811901
9.071174999,2.3980995111692187,-0.4778512503076264,1.3180290461358226
9.075930259,2.3819452294453476,-0.522446923427702,1.3618727050630393
9.080685519,2.35061992648495,-0.5658381659636349,1.4041696524398402
9.08544078,2.3038702621392444,-0.6080467251970954,1.4447507375846127
9.09019604,2.241541025526129,-0.649096096557226,1.483442314113258
9.094951301,2.1635794117085596,-0.689010754388729,1.5200674292974354
9.099706561,2.07003864943529,-0.727815361985161,1.5544471115686818
9.104461822,1.9610809279207801,-0.7655339630842243,1.5864017394875154
9.10921703,1.8369795760469554,-0.8021891584224999,1.6157524745752605
9.11397229,1.6981204533581977,-0.8378012725785712,1.642322739893954
9.118727551,1.5450025186058658,-0.8723875181535671,1.6659397261452786
9.123482811,1.3782375482536828,-0.9059611662936037,1.6864359073066832
9.128238072,1.198548984213499,-0.9385307345731508,1.7036505483791735
9.132993332,1.0067698970930725,-0.970099205222247,1.7174311886313318
9.137748592,0.8038400583476373,-1.0006632884603626,1.7276350847377009
9.142503853,0.5908021218865296,-1.0302127471716098,1.7341305993804939
9.147259061,0.3687969228735528,-1.0587298002331431,1.7367985221633735
9.152014322,0.1390579086757275,-1.0861886224401338,1.7355333110209978
9.156769582,-0.09709527583924651,-1.1125549591223003,1.7302442436439263
9.161524842,-0.33826401919615284,-1.1377858731887853,1.720856469734458
9.166280103,-0.5829787536952904,-1.161829641449917,1.7073119561470624
9.171035363,-0.8297077014182842,-1.1846258156457639,1.6895703181437716
9.175790624,-1.0768663049744733,-1.2061054616843587,1.667609531106231
9.180545884,-1.3228272853440413,-1.2261915881969032,1.6414265180880425
9.185301092,-1.565931262770027,-1.2447997727075244,1.6110376095722765
9.190056353,-1.8044978706805002,-1.2618389905561855,1.5764788727433543
9.194811613,-2.036837287128445,-1.2772126482751314,1.5378063085152602
9.199566874,-2.261262103251517,-1.2908198194733653,1.4950959154916408
9.204322134,-2.4760994438024504,-1.302556677502766,1.4484436209629814
9.209077394,-2.679703250894565,-1.3123181153375796,1.3979650799545593
9.213832655,-2.8704666387410196,-1.319999539274529,1.3437953442040385
9.218587915,-3.0468342243369086,-1.32549881933987,1.2860884037492772
9.223343124,-3.207314336757112,-1.3287183757643137,1.2250166045390813
9.228098384,-3.3504910060701216,-1.3295673776500274,1.1607699461649206
9.232853644,-3.475035631876104,-1.3279640270996058,1.0935552645073168
9.237608905,-3.5797182312527234,-1.3238378996951818,1.0235953048808006
9.242364165,-3.663418166515873,-1.3171323103776051,0.9511276922404243
9.247119426,-3.7251342547408957,-1.3078066725115165,0.8764038062658875
9.251874634,-3.7639941634809846,-1.2958388172158313,0.7996875707256814
9.256629894,-3.779263000567426,-1.2812272398433413,0.7212541684643868
9.261385155,-3.770351010270896,-1.2639932407551557,0.641388695618384
9.266140415,-3.736820293434512,-1.2441829282087078,0.5603847711443861
9.270895676,-3.678390475426821,-1.221869052209748,0.4785431202690002
9.275650936,-3.5949432528326954,-1.1971526394943282,0.3961701528334847
9.280406197,-3.4865257576147655,-1.1701644013099204,0.3135765595358953
9.285161405,-3.353352685997455,-1.1410658872587371,0.23107595063497155
9.289916665,-3.195807148597151,-1.1100503600782123,0.14898356268553975
9.294671926,-3.0144402084796336,-1.0773433678344553,0.06761505911322062
9.299427186,-2.8099690850724284,-1.0432029916337635,-0.01271455095603157
9.304182447,-2.583274014410652,-1.0079197487504452,-0.09169185631436845
9.308937707,-2.335393770101689,-0.9718161332410902,-0.16900584167131627
9.313692967,-2.067519864327446,-0.9352457788439376,-0.24434854899873085
9.318448176,-1.7809894635093688,-0.8985922322414959,-0.3174156293583336
9.323203436,-1.477277068344361,-0.8622673284019396,-0.38790682554391753
9.327958697,-1.1579850225079733,-0.8267091634812446,-0.45552643101692203
9.332713957,-0.8248329282950446,-0.7923796645258001,-0.5199837686728276
9.337469217,-0.47964606049808944,-0.759761758928746,-0.5809937266881036
9.342224478,-0.12434288126798293,-0.7293561502962026,-0.6382773806786793
9.346979738,0.23907823215288368,-0.7016777111515118,-0.6915627237010886
9.351734947,0.6085529285213346,-0.6772515068435377,-0.7405855196797275
9.356490207,0.9819653704392246,-0.6566084692001466,-0.7850902922089046
9.361245467,1.3571631451425072,-0.6402807428866639,-0.8248314588584075
9.366000728,1.731972473773795,-0.6287967320266076,-0.8595746198204581
9.370755988,2.104213594311895,-0.6226758793147391,-0.8890980076074789
9.375511249,2.471716192851021,-0.6224232145023977,-0.913194100753317
9.380266457,2.8323347573532813,-0.6285237136934264,-0.9316713990444102
9.385021717,3.183963727589768,-0.6414365153133554,-0.944356351155633
9.389776978,3.5245523150383535,-0.6615890428725103,-0.9510954182567544
9.394532238,3.852118867309197,-0.689371088697129,-0.951757249669835
9.399287499,4.1647646534884455,-0.7251289165982168,-0.9462349393366067
9.404042759,4.460686949846218,-0.7691594449158906,-0.9344483249204227
9.408797967,4.738191309787345,-0.8217045744344409,-0.9163462849625277
9.413553228,4.9957029078022055,-0.8829457282244272,-0.8919089837869282
9.418308488,5.2317768545787136,-0.9529986724673656,-0.8611500091615144
9.423063749,5.445107389569944,-1.0319086887459497,-0.8241183449257132
9.427819009,5.634535868533813,-1.1196461692002757,-0.7809001212367925
9.432574269,5.799057477153164,-1.2161027064413226,-0.7316200899097445
9.43732953,5.937826617573854,-1.3210877501635367,-0.6764427813304964
9.442084738,6.050160931605461,-1.4343259018038959,-0.6155733106676149
9.446839999,6.1355439410939665,-1.5554549169857814,-0.5492578118851835
9.451595259,6.193626301599106,-1.684024482465883,-0.477783486413676
9.456350519,6.224225679701047,-1.8194958295832557,-0.40147825884523625
9.46110578,6.227325277310541,-1.9612422396576843,-0.32071003551733346
9.46586104,6.2030710387503785,-2.108550488384215,-0.23588556465736318
9.470616249,6.151767588477678,-2.2606232660681767,-0.14744890002665484
9.475371509,6.073872959211519,-2.416582598613623,-0.05587947430375129
9.480126769,5.969992181712463,-2.5754742806194844,0.03831020632346483
9.48488203,5.840869818130337,-2.7362733169083064,0.1345772293653637
9.48963729,5.6873815302689,-2.8978903525579174,0.23235128303309013
9.494392551,5.51052478202075,-3.059179054380558,0.3310379771021409
9.499147759,5.3114087815257465,-3.2189443892497973,0.4300224489932321
9.503903019,5.091243773396665,-3.375951727232927,0.5286732246750724
9.50865828,4.851329794790697,-3.5289366806968374,0.6263463027790509
9.51341354,4.593045011309079,-3.6766155749672373,0.7223894293080813
9.518168801,4.317833749767733,-3.8176964322469296,0.8161465293976228
9.522924061,4.027194344884029,-3.9508903387860568,0.9069622617824706
9.527679269,3.7226669159490022,-4.074923056108309,0.9941866610094905
9.53243453,3.4058211876475974,-4.188546730697166,1.077179832025775
9.53718979,3.0782444663606934,-4.2905515530981955,1.1553166615023607
9.541945051,2.741529879543145,-4.3797772169608375,1.2279915100414545
9.546700311,2.3972649811942954,-4.45512403109852,1.2946228492170082
9.551455572,2.047020821174334,-4.515563543087886,1.3546578072459978
9.55621078,1.692341570354801,-4.560148541102994,1.4075765870672083
9.56096604,1.3347347874607183,-4.588022311387368,1.4528967207864583
9.565721301,0.9756624070208372,-4.598427041743853,1.4901771248177704
9.570476561,0.6165325210837098,-4.590711276344842,1.5190219205180109
9.575231822,0.25869202022797144,-4.564336343663543,1.539083985601431
9.57998703,-0.09657984820110023,-4.518881696988469,1.5500682021450292
9.58474229,-0.4480769548949811,-4.454049125337326,1.5517343676522204
9.589497551,-0.7946707556575362,-4.3696658110921796,1.5438997365602922
9.594252811,-1.1353137199126795,-4.265686228735543,1.5264411609029958
9.599008072,-1.4690417008749148,-4.142192896059347,1.4992968007441254
9.603763332,-1.7949752398900514,-3.9993960045958357,1.4624673776599377
9.60851854,-2.112319810772648,-3.837631969393223,1.4160169481150473
9.613273801,-2.4203650239581096,-3.6573609494408696,1.3600731781270108
9.618029061,-2.7184828244983077,-3.4591633990179496,1.294827106129836
9.622784322,-3.0061247319307496,-3.2437357170950345,1.220532387284469
9.627539582,-3.282818183447288,-3.0118850668452297,1.13750401938202
9.632294842,-3.5481620541974626,-2.7645234405609758,1.0461165576100726
9.637050051,-3.8018214396417367,-2.502661047077556,0.9468018324964101
9.641805311,-4.043521794378425,-2.227399099406449,0.840046192114961
9.646560572,-4.273042529696746,-1.9399220798830479,0.7263872960767334
9.651315832,-4.490210178269152,-1.6414895589175784,0.6064104949471453
9.65607104,-4.694891238978744,-1.3334276415840862,0.48074483452637573
9.660826301,-4.886984818010081,-1.01712011397153,0.35005872982459724
9.665581561,-5.066415184147058,-0.6939993586316668,0.21505535838222575
9.670336822,-5.233124356804393,-0.36553710574615567,0.07646782648728233
9.675092082,-5.387064844633952,-0.03323508391288633,-0.06494583574600786
9.679847342,-5.52819265043436,0.3013843682132706,-0.20840779424921996
9.684602603,-5.656460654408498,0.6367876707533426,-0.3531255920232344
9.689357811,-5.771812482616973,0.9714392956528464,-0.4982973422707478
9.694113072,-5.874176961063072,1.3038109298968816,-0.6431168908323605
9.698868332,-5.963463248587314,1.6323904568068124,-0.7867789117673281
9.703623592,-6.03955673389883,1.955690705065402,-0.9284839061859631
9.708378853,-6.102315773681934,2.272257916699046,-1.067443079974104
9.713134061,-6.151569339678834,2.5806798868247545,-1.2028830808289979
9.717889322,-6.187115632742663,2.879593729723986,-1.334050579167913
9.722644582,-6.20872171081555,3.167693227898716,-1.4602166810754489
9.727399842,-6.216124165402671,3.4437357233150627,-1.58068116452775
9.732155103,-6.209030867310748,3.7065485131144413,-1.694776532600423
9.736910311,-6.187123787291045,3.9550347157000805,-1.8018718791559167
9.741665572,-6.150062881010128,4.188178577285479,-1.9013765635799627
9.746420832,-6.097491010801903,4.4050501936865185,-1.992743691491352
9.751176092,-6.029039859309549,4.604809627280069,-2.0754733979906748
9.755931353,-5.944336772780586,4.786710404541753,-2.149115928962258
9.760686613,-5.843012454785546,4.950102385308811,-2.2132745142561934
9.765441822,-5.724709414826979,5.094434000788491,-2.2676080243567918
9.770197082,-5.589091061030275,5.219253863238423,-2.3118333995334965
9.774952342,-5.435851312227856,5.32421175604158,-2.345727837646739
9.779707603,-5.264724592659847,5.4090590183913445,-2.369130723945698
9.784462811,-5.075496062592916,5.473648343756205,-2.381945283547872
9.789218072,-4.8680119306765235,5.517933015481983,-2.384139934986228
9.793973332,-4.642189688928619,5.5419656061619555,-2.3757493213319223
9.798728592,-4.398028108849265,5.545896169721904,-2.356874993996748
9.803483853,-4.1356168372015025,5.5299699565858536,-2.327685723470301
9.808239113,-3.855145432347959,5.4945246829276995,-2.2884174111015154
9.812994322,-3.5569116865605257,5.439987385021162,-2.23937257676503
9.817749582,-3.2413290863076334,5.366870889226718,-2.180919398956943
9.822504842,-2.908933271060521,5.275769927337449,-2.113490286494859
9.827260103,-2.5603873615527855,5.167356925961235,-2.0375799643921093
9.832015311,-2.1964860405907074,5.042377497435753,-1.9537430604580341
9.836770572,-1.818158283348183,4.9016456585320105,-1.8625911836214544
9.841525832,-1.4264686494654268,4.746038801980434,-1.764789489807917
9.846281092,-1.0226170660617055,4.576492444743607,-1.661052736362282
9.851036353,-0.607937048818468,4.393994776062898,-1.5521408314386658
9.855791561,-0.18389232741218145,4.199581027716931,-1.4388538904309196
9.860546822,0.2479281384632635,3.994327688722476,-1.322026817353582
9.865302082,0.6858167457464537,3.779346586931928,-1.2025234350874563
9.870057342,1.1279554098878906,3.5557788606553116,-1.0812301945746718
9.874812603,1.572425253944397,3.3247888445422413,-0.959049499394763
9.879567811,2.017217756754479,3.0875578954474197,-0.8368926886957649
9.884323072,2.4602472726508258,2.8452781857784517,-0.7156727282317512
9.889078332,2.899364816642114,2.5991464937422823,-0.5962966663166105
9.893833592,3.3323729914828184,2.350358021761442,-0.47965791884694164
9.898588853,3.757041916669731,2.1001002758724914,-0.3666284550837614
9.903344061,4.171126004310994,1.849547039899118,-0.25805096341389594
9.908099322,4.572381413197416,1.5998524784454389,-0.15473108355351425
9.912854582,4.958584000471681,1.3521454022779051,-0.05742979826166112
9.917609842,5.327547580218909,1.1075237286513369,0.033143916824065346
9.922365103,5.6771422902182005,0.8670491679190568,0.11634008268938235
9.927120311,6.00531286209521,0.6317421666695477,0.19157424164332573
9.931875572,6.31009658633844,0.4025771368027716,0.25833341458931935
9.936630832,6.589640762337153,0.18047799931986813,0.316181393492484
9.941386092,6.842219425140572,-0.03368592908468226,0.3647632808944934
9.946141353,7.0662491454526,-0.23910367953789757,0.4038092012477446
9.950896561,7.260303707801151,-0.43502597906871565,0.4331371246982069
9.955651822,7.423127483965016,-0.6207681800228586,0.45265476167428287
9.960407082,7.553647334434604,-0.7957127508339011,0.4623605051190003
9.965162342,7.650982889548066,-0.9593113124664672,0.46234341548643204
9.969917603,7.714455083535787,-1.1110862101497108,0.45278226098931246
9.974672811,7.743592838623119,-1.2506316161714377,0.4339436414707474
9.979428072,7.738137822207233,-1.3776141662586072,0.40617923821196866
9.984183332,7.698047227462442,-1.491773139110794,0.36992224361128145
9.988938592,7.623494555882665,-1.5929201955936347,0.32568303375569596
9.993693801,7.51486840845892,-1.6809387005092056,0.27404415344040756
9.998449061,7.372769319634954,-1.755782655314091,0.21565468736933188
10.00320432,7.198004694202379,-1.8174752742692128,0.15122409344667306
10.00795958,6.9915819313212495,-1.866107238944292,0.08151557468371864
10.01271484,6.75469984141189,-1.901834666494281,0.007339065760049703
10.01747005,6.488738480370867,-1.9248768255159712,-0.07045609086916746
10.02222531,6.195247541124202,-1.9355136295978732,-0.15098870587095298
10.02698057,5.87593345477232,-1.9340829331547702,-0.23335346896567213
10.03173583,5.532645362495976,-1.9209776473399724,-0.3166287693306695
10.03649104,5.167360125150866,-1.8966426865759045,-0.39988454140071555
10.0412463,4.782166540335284,-1.8615717494843518,-0.48219006899234274
10.04600156,4.379248936853857,-1.8163039325687296,-0.562621683874776
10.05075682,3.96087031403219,-1.761420171459173,-0.6402702999119938
10.05551208,3.5293551885355265,-1.6975395031246858,-0.7142487308038666
10.06026729,3.0870723048574393,-1.625315143176735,-0.783698747528559
10.06502255,2.6364173583595285,-1.5454303750433986,-0.8477978394729418
10.06977781,2.179795872365301,-1.4585942520915052,-0.9057656496147757
10.07453307,1.7196063635674248,-1.365537119416234,-0.956870058335829
10.07928828,1.2582239227325975,-1.2670059687528104,-1.0004328925927826
10.08404354,0.7979843301235556,-1.1637596475850656,-1.0358352377534192
10.0887988,0.3411688170464158,-1.0565639517745016,-1.062522329034626
10.09355406,-0.110010423572647,-0.9461866394603672,-1.0800079988132758
10.09830927,-0.553423883661168,-0.8333924118599868,-1.08787865573392
10.10306453,-0.9870374590004615,-0.7189379130530683,-1.0857967718516273
10.10781979,-1.4089241659028418,-0.6035668051420768,-1.0735038549581049
10.11257505,-1.817274790517927,-0.4880049770331142,-1.0508228844319425
10.11733031,-2.210407415559624,-0.37295594460276665,-1.0176601902018114
10.12208552,-2.586775779125523,-0.25909649759264064,-0.9740067557462787
10.12684078,-2.944976430214073,-0.1470726446587509,-0.9199389276549499
10.13159604,-3.2837546554535555,-0.037495903003743246,-0.8556185162591876
10.1363513,-3.602009161264435,0.06906002674953433,-0.7812922742027967
10.14110656,-3.8987955050265106,0.17206216610201067,-0.697290742556205
10.14586177,-4.1733282777976894,0.271020717009636,-0.6040264572678262
10.15061703,-4.4249820498495565,0.3654910523681405,-0.5019915125328513
10.15537229,-4.653291098880391,0.4550752252283927,-0.3917544821314573
10.16012755,-4.857947949276979,0.5394229906905252,-0.2739567049327244
10.16488276,-5.038800759142292,0.6182323418903478,-0.1493079464880418
10.16963802,-5.195849599851933,0.6912495689563523,-0.018581454827561524
10.17439328,-5.329241680539253,0.7582688571637695,0.11739156490589366
10.17914854,-5.439265577084669,0.8191314476254731,0.2577280256382166
10.1839038,-5.526344531878841,0.8737243906291161,0.40149954524894493
10.18865901,-5.591028896822268,0.9219789280533045,0.547739500363571
10.19341427,-5.633987797680359,0.9638685470646386,0.6954504957734777
10.19816953,-5.656000102980883,0.9994067523860684,0.8436121920304095
10.20292479,-5.6579447850581674,1.0286446086886183,0.9911894279898485
10.20768,-5.6407907645596715,1.051668107931396,1.1371405697705896
10.21243526,-5.605586332687554,1.068595418589393,1.2804260128044478
10.21719052,-5.553448247592068,1.0795740744997842,1.4200167594320874
10.22194578,-5.48555060257822,1.0847781603881157,1.5549029909697696
10.22670099,-5.403113564031697,1.0844055489231659,1.684102550503481
10.23145625,-5.307392076131085,1.0786752403720228,1.8066692510774278
10.23621151,-5.199664627438668,1.0678248506107622,1.9217009236426181
10.24096677,-5.081222171340562,1.052108286454733,2.0283471202898626
10.24572198,-4.953357288097673,1.0317936391242084,2.125816391031982
10.25047724,-4.817353671127309,1.0071613173634262,2.2133830567815167
10.2552325,-4.67447601429392,0.9785024316130376,2.290393407179595
10.25998776,-4.525960370699473,0.9461174301591276,2.356271259473466
10.26474302,-4.3730050469362105,0.9103149779011975,2.4105228234868483
10.26949823,-4.2167620901051635,0.8714110588547119,2.4527408274560396
10.27425349,-4.058329418113009,0.8297282751995282,2.4826078695467144
10.27900875,-3.8987436367986765,0.7855953089369216,2.4998989696877048
10.28376401,-3.738973580336931,0.7393465072181957,2.5044833056243334
10.28851922,-3.579914604258228,0.691321549222713,2.4963251256982617
10.29327448,-3.4223836535065923,0.6418651510546372,2.475483838850628
10.29802974,-3.2671151213813583,0.59132676538504,2.442113289818611
10.302785,-3.114757509031633,0.5400602343307153,2.3964602345161152
10.30754021,-2.9658708893740124,0.48842335714036217,2.3388620371681323
10.31229547,-2.820925173835997,0.43677733843907185,2.2697436169121263
10.31705073,-2.6802991751589382,0.3854860878475811,2.1896136773213852
10.32180599,-2.5442804546306985,0.33491534753760616,2.099060257666897
10.3265612,-2.4130659375826204,0.28543163050222087,1.9987456496886866
10.33131646,-2.2867632767834625,0.23740095878351436,1.8894007281418643
10.33607172,-2.1653929394669267,0.1911873973567961,1.7718187473840756
10.34082698,-2.0488909900940158,0.1471513855672297,1.6468486597695644
10.34558219,-1.9371125375379423,0.10564787373258537,1.5153880145968888
10.35033745,-1.8298358121616323,0.06702427761360985,1.3783754987948424
10.35509271,-1.7267668352098489,0.03161826783150954,1.2367831823983677
