Time (s),Acceleration x (m/s^2),Acceleration y (m/s^2),Acceleration z (m/s^2)
4.000257919,-55832930.003789306,88675287.04821157,7413786.638396554
4.005013232,-55777753.74336809,88868929.9042604,7508139.4065775275
4.009768492,-55721682.700326025,89059282.34409368,7601973.247173503
4.014523805,-55664726.644667506,89246352.85710216,7695289.182079144
4.019279065,-55606895.26195401,89430149.98729515,7788088.227710314
4.024034378,-55548198.152347445,89610682.33332515,7880371.395033374
4.028789638,-55488644.82966381,89787958.54854023,7972139.6895997375
4.033544951,-55428244.72043747,89961987.34106469,8063394.111585446
4.038300211,-55367007.162995994,90132777.47390747,8154135.655835554
4.043055524,-55304941.4065457,90300337.7650994,8244365.31191314
4.047810784,-55242056.61026776,90464677.08786082,8334084.064152822
4.052566096,-55178361.84242517,90625804.37080097,8423292.891718686
4.057321357,-55113866.07948059,90783728.59815001,8511992.768666476
4.062076669,-55048578.20522535,90938458.81002474,8600184.664009959
4.06683193,-54982507.00992042,91090004.10272908,8687869.541791335
4.071587242,-54915661.18945044,91238373.62908971,8775048.3611556
4.076342503,-54848049.34449178,91383576.59882665,8861722.076428726
4.081097815,-54779679.97969496,91525622.2789588,8947891.637199521
4.085853076,-54710561.50288212,91664519.99424398,9033557.988404974
4.090608388,-54640702.22426033,91800279.12765384,9118722.070418969
4.095363649,-54570110.355651915,91932909.1208843,9203384.819144174
4.100118961,-54498794.009742916,92062419.4749018,9287547.166107014
4.104874221,-54426761.199350476,92188819.750525,9371210.038555592
4.109629534,-54354019.836709976,92312119.56904101,9454374.35956049
4.114384846,-54280577.73278254,92432328.61285496,9537041.048118263
4.119140107,-54206442.59658378,92549456.62617218,9619211.01925753
4.123895419,-54131622.0345341,92663513.415712,9700885.184147522
4.12865068,-54056123.549830854,92774508.85145187,9782064.450209007
4.133405992,-53979954.54184294,92882452.86740065,9862749.721227467
4.138161253,-53903122.30552828,92987355.46239841,9942941.897468284
4.142916565,-53825634.03087568,93089226.70094073,10022641.875793621
4.147671878,-53747496.80237222,93188076.71402502,10101850.549780726
4.152427138,-53668717.59849781,93283915.70001662,10180568.809841365
4.157182451,-53589303.29124844,93376753.92553163,10258797.543342158
4.161937711,-53509260.64568925,93466601.7263341,10336537.63472557
4.166693024,-53428596.31953889,93553469.50824583,10413789.965631202
4.171448284,-53347316.86278647,93637367.74806738,10490555.415017009
4.176203596,-53265428.71734196,93718306.99450791,10566834.85928014
4.180958909,-53182938.21672094,93796297.86912155,10642629.17237693
4.185714169,-53099851.58576417,93871351.0672487,10717939.225941747
4.190469482,-53016174.94039297,93943477.35896039,10792765.889404356
4.195224742,-52931914.287401974,94012687.5900029,10867110.030105561
4.199980055,-52847075.52429098,94078992.68273962,10940972.513410836
4.204735367,-52761664.43913722,94142403.63708806,11014354.202821776
4.209490628,-52675686.71050984,94202931.53144956,11087255.960085273
4.21424594,-52589147.907428265,94260587.52362919,11159678.645300299
4.219001253,-52502053.48936647,94315382.85174358,11231623.117022261
4.223756513,-52414408.80630475,94367328.83511424,11303090.232364746
4.228511826,-52326219.09883082,94416436.87514412,11374080.847098531
4.233267086,-52237489.49829173,94462718.45617509,11444595.81574777
4.238022399,-52148225.02699804,94506185.14632344,11514635.991683276
4.242777711,-52058430.59848124,94546848.59829068,11584202.227212848
4.247532971,-51968111.01780546,94584720.5501467,11653295.373668524
4.252288284,-51877270.98193413,94619812.82608354,11721916.2814907
4.257043596,-51785915.080151856,94652137.33713841,11790065.80030899
4.261798857,-51694047.79454154,94681706.0818851,11857744.77901967
4.266554169,-51601673.50051707,94708531.14709198,11924954.065859618
4.271309482,-51508796.467411935,94732624.70834589,11991694.508476527
4.276064742,-51415420.859123886,94753999.03064084,12057966.9539952
4.280820055,-51321550.7348156,94772666.46893096,12123772.249079587
4.285575367,-51227190.04967141,94788639.46864784,12189111.23999037
4.290330628,-51132342.6557104,94801930.56618202,12253984.772637742
4.29508594,-51037012.30265629,94812552.38932848,12318393.692628967
4.299841253,-50941202.63886464,94820517.6576953,12382338.845310332
4.304596565,-50844917.21230739,94825839.18307412,12445821.075802984
4.309351826,-50748159.47161496,94828529.86977053,12508841.22903228
4.314107138,-50650932.76717538,94828602.71489275,12571400.14975028
4.318862399,-50553240.35229069,94826070.80859816,12633498.682551133
4.323617711,-50455085.38438958,94820947.33429766,12695137.67187916
4.328373024,-50356470.92629576,94813245.56881809,12756317.96202937
4.333128336,-50257399.94755107,94802978.88252282,12817040.397140162
4.337883596,-50157875.32579231,94790160.73939133,12877305.821177812
4.342638909,-50057899.848180175,94774804.69705881,12937115.077912467
4.347394221,-49957476.21287882,94756924.40681721,12996469.010885464
4.352149482,-49856607.030584335,94736533.61357976,13055368.46336794
4.356904794,-49755294.82609981,94713646.15581228,13113814.278310793
4.361660107,-49653542.039954245,94688275.96543337,13171807.298286067
4.366415419,-49551351.03006244,94660437.06768562,13229348.365420016
4.37117068,-49448724.07342339,94630143.58097912,13286438.321318017
4.375925992,-49345663.36785472,94597409.71670784,13343078.006981613
4.380681305,-49242171.03376085,94562249.77903832,13399268.26271789
4.385436617,-49138249.11593277,94524678.16466929,13455009.92804149
4.390191878,-49033899.585377164,94484709.36255957,13510303.84156947
4.39494719,-48929124.341172345,94442357.95362224,13565150.84090926
4.399702503,-48823925.21234823,94397638.6103821,13619551.762540044
4.404457815,-48718303.959787734,94350566.09659387,13673507.441687899
4.409213076,-48612262.27814681,94301155.26681854,13727018.712194966
4.413968388,-48505801.797790535,94249421.06595494,13780086.406383129
4.418723701,-48398924.086743124,94195378.5287235,13832711.354912492
4.423479013,-48291630.652650245,94139042.77909745,13884894.386634992
4.428234274,-48183922.94475258,94080429.02967753,13936636.328443633
4.432989586,-48075802.35586954,94019552.58100547,13987938.00511782
4.437744899,-47967270.224391766,93956428.82081224,14038800.239165323
4.442500211,-47858327.83628125,93891073.22319688,14089223.850661296
4.447255471,-47748976.42707784,93823501.34773268,14139209.657084886
4.452010784,-47639217.18391109,93753728.83849718,14188758.473153893
4.456766096,-47529051.24751628,93681771.42302383,14237871.110657979
4.461521409,-47418479.71425391,93607644.91117252,14286548.37829085
4.466276721,-47307503.63813234,93531365.19391681,14334791.081481803
4.471031982,-47196124.03283358,93452948.24204649,14382600.022227008
4.475787294,-47084341.87374223,93372410.10478343,14429975.998920877
4.480542607,-46972158.0999775,93289766.90830876,14476919.806187902
4.485297919,-46859573.61642862,93205034.85419978,14523432.234715376
4.490053232,-46746589.29579348,93118230.21777453,14569514.071087409
4.494808492,-46633205.98062093,93029369.3463421,14615166.097620536
4.499563805,-46519424.485356875,92938468.65735652,14660389.092201147
4.504319117,-46405245.5983941,92845544.63647129,14705183.828125004
4.50907443,-46290670.084125765,92750613.83549263,14749551.073939163
4.513829742,-46175698.68500263,92653692.87023057,14793491.593286682
4.518585003,-46060332.12359399,92554798.41824783,14837006.144754563
4.523340315,-45944571.104651935,92453947.21650662,14880095.481725443
4.528095628,-45828416.31717927,92351156.0589142,14922760.352233503
4.53285094,-45711868.436500974,92246441.79376842,14965001.498825047
4.537606253,-45594928.12633855,92139821.32110454,15006819.658424158
4.542361565,-45477596.040887125,92031311.58994545,15048215.562203739
4.547116826,-45359872.82689542,91920929.5954565,15089189.93546227
4.551872138,-45241759.12574858,91808692.3760071,15129743.497506503
4.556627451,-45123255.57555378,91694617.01014175,15169876.961540285
4.561382763,-45004362.813228555,91578720.61346401,15209591.034559716
4.566138076,-44885081.476591535,91461020.33543755,15248886.41725481
4.570893388,-44765412.206455596,91341533.35610797,15287763.803917844
4.575648649,-44645355.64872307,91220276.8827491,15326223.882358555
4.580403961,-44524912.456482,91097268.1464379,15364267.333826382
4.585159274,-44404083.29210163,90972524.39856185,15401894.832939897
4.589914586,-44282868.829325326,90846062.90726306,15439107.047623623
4.594669899,-44161269.755359,90717900.95382251,15475904.639052559
4.599425211,-44039286.77295316,90588055.82898773,15512288.26160467
4.604180524,-43916920.60247696,90456544.82924737,15548258.562821615
4.608935836,-43794171.98398293,90323385.25305642,15583816.183377821
4.613691096,-43671041.67926062,90188594.39701654,15618961.757057998
4.618446409,-43547530.47387732,90052189.55201651,15653695.910743255
4.623201721,-43423639.17920322,89914187.99933733,15688019.264406
4.627957034,-43299368.634418555,89774607.00672568,15721932.431113768
4.632712346,-43174719.70850051,89633463.82444026,15755436.01704203
4.637467659,-43049693.30218745,89490775.68127455,15788530.621495906
4.642222971,-42924290.349917956,89346559.78056015,15821216.836940844
4.646978284,-42798511.821742006,89200833.29615416,15853495.249042142
4.651733596,-42672358.72520197,89053613.36841442,15885366.436713103
4.656488857,-42545832.10718108,88904917.10016586,15916830.972171415
4.661244169,-42418933.05571706,88754761.55266084,15947889.421003405
4.665999482,-42291662.70177884,88603163.74153651,15978542.342235718
4.670754794,-42164022.221004374,88450140.63277175,16008790.288413886
4.675510107,-42036012.83539785,88295709.13864602,16038633.805687342
4.680265419,-41907635.81498421,88139886.1137035,16068073.43390048
4.685020732,-41778892.47941942,87982688.35072602,16097109.706689361
4.689776044,-41649784.19955487,87824132.57671894,16125743.151583718
4.694531357,-41520312.39895428,87664235.44891395,16153974.290113943
4.699286669,-41390478.55536098,87503013.55079295,16181803.63792284
4.70404193,-41260284.20211346,87340483.38813819,16209231.704881968
4.708797242,-41129730.929506846,87176661.38511457,16236258.995212333
4.713552555,-40998820.38609762,87011563.88038935,16262886.007609012
4.718307867,-40867554.27994836,86845207.12329449,16289113.235369297
4.72306318,-40735934.37981004,86677607.27003624,16314941.16652392
4.727818492,-40603962.51623977,86508780.3799571,16340370.283970984
4.732573805,-40471640.58265234,86338742.41185404,16365401.065612273
4.737329117,-40338970.536303885,86167509.22035684,16390033.984491752
4.74208443,-40205954.39920599,85995096.5523702,16414269.508936184
4.746839742,-40072594.25896866,85821520.04358388,16438108.102697896
4.751595055,-39938892.269570775,85646795.21505465,16461550.225099878
4.756350367,-39804850.65205694,85470937.46986426,16484596.331183525
4.76110568,-39670471.69515956,85293962.08985735,16507246.871859448
4.765860992,-39535757.7558452,85115884.2324629,16529502.294061678
4.770616305,-39400711.25978405,84936718.92760314,16551363.040905641
4.775371617,-39265334.70174194,84756481.0746925,16572829.551850246
4.78012693,-39129630.64589424,84575185.43972875,16593902.262864308
4.784882242,-38993601.72606105,84392846.65247883,16614581.606597649
4.789637503,-38857250.64586312,84209479.20376147,16634868.012557225
4.794392815,-38720580.17879791,84025097.44282915,16654761.907288553
4.799148128,-38583593.168236084,83839715.57485034,16674263.714562627
4.80390344,-38446292.52733857,83653347.65849234,16693373.8555685
4.808658753,-38308681.23889453,83466007.60360481,16712092.749111848
4.813414065,-38170762.35508097,83277709.16900481,16730420.811819779
4.818169378,-38032538.997144826,83088465.96036352,16748358.45835224
4.82292469,-37894014.35500825,82898291.4281943,16765906.101620289
4.827680003,-37755191.68679786,82707198.86594214,16783064.1530115
4.832435315,-37616074.31829882,82515201.40817417,16799833.022622764
4.837190628,-37476665.64233518,82322312.02887155,16816213.11950077
4.84194594,-37336969.118077755,82128543.53982271,16832204.851890594
4.846701253,-37196988.27028167,81933908.5891185,16847808.62749274
4.851456565,-37056726.68845546,81738419.6597494,16863024.85372886
4.856211878,-36916188.02596396,81542089.06830527,16877853.938016057
4.86096719,-36775375.999067366,81344928.96377815,16892296.288049698
4.865722503,-36634294.38589877,81146951.32646932,16906352.312094614
4.870477815,-36492947.0253824,80948167.96700098,16920022.419284686
4.875233128,-36351337.81609446,80748590.52543391,16933307.01993102
4.87998844,-36209470.71506846,80548230.47049189,16946206.525839
4.884743753,-36067349.73654699,80347099.09889293,16958721.350634456
4.889499065,-35924978.950681865,80145207.5347879,16970851.91009885
4.894254378,-35782362.48218441,79942566.72930658,16982598.622513592
4.89900969,-35639504.50892776,79739187.46021235,16993961.90901324
4.903765003,-35496409.26050293,79535080.33166611,17004942.193947405
4.908520315,-35353081.01673054,79330255.77410054,17015539.905251056
4.913275628,-35209524.10613059,79124724.04420567,17025755.47482297
4.918030992,-35065742.90435248,78918495.22502661,17035589.33891177
4.922786305,-34921741.832567744,78711579.22617471,17045041.938508958
4.927541617,-34777525.3558281,78503985.78415346,17054113.71974805
4.93229693,-34633097.981391005,78295724.46280038,17062805.134309113
4.937052242,-34488464.25701528,78086804.6538465,17071116.6398277
4.941807555,-34343628.769229285,77877235.57759511,17079048.70030716
4.946562867,-34198596.1415742,77667026.28372169,17086601.786533177
4.95131818,-34053371.03282481,77456185.6521964,17093776.37648931
4.956073492,-33907958.13519015,77244722.39433098,17100572.955772698
4.960828805,-33762362.17249667,77032645.05395019,17106992.01800883
4.965584117,-33616587.89835664,76819962.00868881,17113034.065264523
4.97033943,-33470640.094325025,76606681.47141409,17118699.608458042
4.975094742,-33324523.568047453,76392811.4917736,17123989.16776544
4.979850055,-33178243.151402105,76178359.9578669,17128903.27302235
4.984605367,-33031803.698638424,75963334.59803939,17133442.464120563
4.98936068,-32885210.084515557,75747742.98279653,17137607.29139864
4.994115992,-32738467.202443317,75531592.52683602,17141398.31602597
4.998871357,-32591579.96262829,75314890.4911953,17144816.110379543
5.003626669,-32444553.290227458,75097643.985512,17147861.258412864
5.008381982,-32297392.123511836,74879859.97039376,17150534.356016275
5.013137294,-32150101.412042275,74661545.25989436,17152836.01136818
5.017892607,-32002686.114859298,74442706.52409218,17154766.84527662
5.022647919,-31855151.198688935,74223350.29176699,17156327.491510745
5.027403232,-31707501.636166226,74003482.95317124,17157518.59712186
5.032158544,-31559742.404078286,73783110.76289307,17158340.822753783
5.036913857,-31411878.481628757,73562239.84280787,17158794.842942294
5.041669169,-31263914.8487256,73340876.18511473,17158881.346403416
5.046424534,-31115856.484294068,73119025.65545355,17158601.03631025
5.051179846,-30967708.364616703,72896693.9960997,17157954.63055828
5.055935159,-30819475.46170209,72673886.82923196,17156942.86201906
5.060690471,-30671162.741684057,72450609.6602696,17155566.47878238
5.065445784,-30522775.163252927,72226867.88127445,17153826.24438676
5.070201096,-30374317.676120467,72002666.77441417,17151722.938038167
5.074956409,-30225795.2195201,71778011.51548217,17149257.35481703
5.079711721,-30077212.720743693,71552907.17746983,17146430.30587342
5.084467034,-29928575.093716092,71327358.73418652,17143242.618610468
5.089222399,-29779887.23760841,71101371.06392251,17139695.136855986
5.093977711,-29631154.035491027,70874948.95314978,17135788.721022394
5.098733024,-29482380.353027143,70648097.10025488,17131524.24825486
5.103488336,-29333571.03720761,70420820.11929916,17126902.61256766
5.108243649,-29184730.915127642,70193122.54380152,17121924.724968668
5.112998961,-29035864.792806033,69965008.83053872,17116591.513572153
5.117754326,-28886977.454047356,69736483.36335883,17110903.92369994
5.122509638,-28738073.65934748,69507550.45700285,17104862.91797101
5.127264951,-28589158.144842897,69278214.36092994,17098469.47637954
5.132020263,-28440235.62130404,69048479.26314184,17091724.596361544
5.136775576,-28291310.77317265,68818349.2940019,17084629.292850252
5.141530888,-28142388.257643465,68587828.53004405,17077184.59832051
5.146286253,-27993472.70379025,68356920.99776682,17069391.562822517
5.151041565,-27844568.711736295,68125630.67740747,17061251.25400531
5.155796878,-27695680.85186893,67893961.50669101,17052764.75713026
5.16055219,-27546813.6640977,67661917.38454881,17043933.17507484
5.165307503,-27397971.657155935,67429502.1748009,17034757.62832698
5.170062867,-27249159.307945434,67196719.70979622,17025239.25497034
5.17481818,-27100381.06092385,66963573.79400584,17015379.21066081
5.179573492,-26951641.32753441,66730068.20756349,17005178.668594476
5.184328805,-26802944.485677633,66496206.709747344,16994638.819467302
5.189084117,-26654294.879224364,66261993.04239765,16983760.871426877
5.193839482,-26505696.817569736,66027430.93326464,16972546.05001646
5.198594794,-26357154.575227503,65792524.09928182,16960995.598111656
5.203350107,-26208672.391464297,65557276.24975976,16949110.775849994
5.208105419,-26060254.46997327,65321691.089496106,16936892.860553604
5.212860732,-25911904.97858647,65085772.32179776,16924343.14664508
5.217616096,-25763628.04902542,64849523.6514118,16911462.945556607
5.222371409,-25615427.776689235,64612948.78736225,16898253.585632306
5.227126721,-25467308.220479522,64376051.44569036,16884716.41202372
5.231882034,-25319273.402661238,64138835.35209635,16870852.786578175
5.236637399,-25171327.30875865,63901304.24448106,16856664.087719735
5.241392711,-25023473.88748542,63663461.87538633,16842151.710322436
5.246148024,-24875717.05070785,63425312.01433292,16827317.06557561
5.250903336,-24728060.673439953,63186858.45005497,16812161.580841135
5.255658701,-24580508.593868855,62948104.992630035,16796686.69950236
5.260414013,-24433064.613409314,62709055.47550371,16780893.880804624
5.265169326,-24285732.49678609,62469713.757407695,16764784.599687453
5.26992469,-24138515.972143147,62230083.72416946,16748360.346608322
5.274680003,-23991418.731178407,61990169.29041186,16731622.627357986
5.279435315,-23844444.429302994,61749974.40114054,16714572.962867346
5.284190628,-23697596.68582398,61509503.03321764,16697212.889005836
5.288945992,-23550879.084149662,61268759.19672057,16679543.956371363
5.293701305,-23404295.172016297,61027746.93618563,16661567.730071705
5.298456617,-23257848.461735133,60786470.33173618,16643285.789497282
5.303211982,-23111542.43045846,60544933.5000954,16624699.728085216
5.307967294,-22965380.52046359,60303140.59548405,16605811.153074678
5.312722607,-22819366.139453772,60061095.81040433,16586621.685253527
5.317477971,-22673502.660875145,59818803.37631056,16567132.958696198
5.322233284,-22527793.42424879,59576267.56416759,16547346.620492887
5.326988596,-22382241.7355167,59333492.684898704,16527264.33047026
5.331743961,-22236850.86740053,59090483.08972487,16506887.76090416
5.336499274,-22091624.05977172,58847243.17039743,16486218.596224647
5.341254586,-21946564.520031814,58603777.35932675,16465258.532713737
5.346009899,-21801675.423501585,58360090.12960914,16444009.278196286
5.350765263,-21656959.913817886,58116185.994954616,16422472.55172437
5.355520576,-21512421.103337143,57872069.50951794,16400650.083255466
5.36027594,-21368062.073544297,57627745.2676352,16378543.613324683
5.365031253,-21223885.875466082,57383217.90346858,16356154.892711114
5.369786565,-21079895.530087564,57138492.09056166,16333485.682098534
5.37454193,-20936094.028771166,56893572.5413079,16310537.751730677
5.379297242,-20792484.333677147,56648464.006335944,16287312.881061386
5.384052555,-20649069.37818444,56403171.27381548,16263812.858399998
5.388807919,-20505852.067310844,56157699.1686869,16240039.480552372
5.393563232,-20362835.27813155,55912052.5518187,16215994.552457925
