Time (s),X (m/s^2),Y (m/s^2),Z (m/s^2)
10.00641204,-6.821913757,-5.593418427,3.792812805
10.01634104,-7.476951599,-5.436544647,4.071233826
10.02626904,-8.133336639,-5.224136353,4.230502625
10.03619804,-8.753197632,-4.97056366,4.049828339
10.04612604,-9.270072784,-4.778962097,3.682791595
10.05605504,-9.571545868,-4.661306763,3.412453766
10.06598304,-9.452842712,-4.494553528,3.487447815
10.07591204,-8.956474915,-4.354295197,3.661835175
10.08584104,-8.38361618,-4.365821228,3.698209534
10.09576904,-7.948022003,-4.475093994,3.636837158
10.10569804,-7.586673431,-4.571343842,3.523672485
10.11562604,-7.281607819,-4.639003143,3.390299835
10.12555504,-7.111411743,-4.630919952,3.459605713
10.13548233,-7.188651123,-4.650828552,3.569028168
10.14541133,-7.560627594,-4.740342407,3.600163422
10.15533933,-8.195008392,-4.770729218,3.808530121
10.16526833,-8.775501251,-4.653223572,4.247118073
10.17519633,-8.948242035,-4.491709442,4.622537384
10.18512533,-8.737480316,-4.274211731,4.847519531
10.19505433,-8.428223419,-4.057612152,5.034181366
10.20498233,-8.134983215,-3.844455414,5.14839386
10.21491133,-7.884404297,-3.658242645,5.081483002
10.22483933,-7.646698608,-3.532653809,4.796625366
10.23476833,-7.399562531,-3.568130035,4.326453094
10.24469633,-7.200626221,-3.633993073,3.816014557
10.25462533,-7.240593109,-3.5898349,3.502266998
10.26455333,-7.579937439,-3.471431122,3.544329529
10.27448233,-8.169860687,-3.440744934,3.885769501
10.28441033,-8.696465607,-3.608396301,4.227059784
10.29433933,-8.986113281,-3.810326385,4.533023529
10.30426833,-9.2167836,-3.893852692,4.919519806
10.31419633,-9.355694733,-3.820654907,5.258714447
10.32412533,-9.285041656,-3.671564941,5.443130951
10.33405333,-9.00377655,-3.695515137,5.345833282
10.34398233,-8.696764984,-3.71033432,5.152884521
10.35391033,-8.44094696,-3.697012024,5.046306152
10.36383933,-8.266858978,-3.66467926,5.034031677
10.37376733,-8.232131195,-3.579356689,4.993765411
10.38369633,-8.299341431,-3.451672211,4.801714783
10.39362433,-8.507259064,-3.241060181,4.455335083
10.40355333,-8.903335419,-3.022065582,4.165088654
10.41348133,-9.41332489,-3.048859863,4.108057251
10.42341033,-9.963580627,-3.425326996,4.263284454
10.43333933,-10.46593597,-3.952680359,4.633464661
10.44326733,-10.55634796,-4.224215698,5.163512421
10.45319633,-10.16760635,-4.154460754,5.565276947
10.46312433,-9.812844086,-4.078269196,5.6468573
10.47305333,-9.448801117,-4.150119781,5.409001923
10.48298133,-8.944499817,-4.1830513,5.015470276
10.49291033,-8.306376801,-3.994293823,4.667444
10.50283833,-7.55763382,-3.66123642,4.500391388
10.51276733,-6.806046753,-3.346141663,4.404590607
10.52269533,-6.233936462,-3.031196594,4.299209747
10.53262433,-5.881120148,-2.744243317,4.091142426
10.54255333,-5.728287964,-2.48992218,3.77006012
10.55248133,-5.781726837,-2.254012756,3.482059021
10.56241033,-5.834566956,-2.074386292,3.532653809
10.57233833,-5.936504974,-1.959724731,3.968697052
10.58226733,-6.16163681,-1.875749359,4.404141541
10.59219533,-6.563401337,-1.752106476,4.543352051
10.60212433,-7.113806763,-1.573827209,4.563859406
10.61205233,-7.532785492,-1.510209503,4.433630219
10.62198133,-8.04546936,-1.483415222,3.902085571
10.63190933,-8.904083862,-1.383273468,3.272045746
10.64183833,-9.564510498,-1.40647522,3.146157532
10.65176633,-9.019194489,-1.885778503,4.289929047
10.66169533,-7.110064545,-2.875370636,6.235133972
10.67162433,-5.321134644,-3.616030426,6.968758392
10.68155233,-4.932093658,-3.280128937,4.713847504
10.69148133,-6.128555603,-1.945354614,1.847907257
10.70140933,-7.297175446,-0.8369096375,1.268162842
10.71133833,-8.085735626,-0.5357359314,2.786156158
10.72126633,-8.680299225,-0.8304730225,5.287903748
10.73119533,-9.059909821,-1.754651184,7.239694977
10.74112333,-9.28114975,-2.984493713,7.806566162
10.75105233,-9.158554688,-3.831881561,6.767876129
10.76098033,-8.873098297,-3.980372772,5.58368866
10.77090933,-8.245004425,-3.749702454,5.282215576
10.78083833,-7.617808685,-3.39673645,5.478607178
10.79076633,-7.190896454,-3.09601181,6.047124939
10.80069533,-7.108567657,-2.803669739,6.633755035
10.81062333,-7.415429535,-2.709216156,6.681356049
10.82055233,-7.995024261,-2.441872101,6.224206696
10.83048033,-8.735983429,-2.075434113,5.655988312
10.84040933,-9.138047333,-1.706601105,5.764213257
10.85033733,-8.905131683,-1.415606232,6.3780867
10.86026633,-8.40352478,-1.339264984,6.484515381
10.87019433,-7.744445343,-1.425785065,6.14172821
10.88012333,-7.050189056,-1.423090668,5.922284546
10.89005133,-6.655160522,-1.245709534,5.720803528
10.89998033,-6.540199585,-1.104104004,5.423222351
10.90990833,-6.773264923,-1.132395172,5.187462616
10.91983733,-7.318281555,-1.275946655,5.350024567
10.92976633,-8.063731384,-1.552272034,5.786965942
10.93969433,-8.761879578,-1.797462158,5.874833221
10.94962333,-9.385333099,-1.697919159,5.983656921
10.95955133,-9.953401794,-1.43566452,6.329138489
10.96948033,-10.11940659,-1.133143616,6.309828644
10.97940833,-9.610015869,-0.759969635,5.878425751
10.98933733,-8.923693085,-0.3522175598,5.844446411
10.99926533,-8.347690887,-0.2742297363,5.335355072
11.00919433,-7.71675293,-0.3353027344,4.930147705
11.01912233,-7.321125641,-0.2721340942,5.12968277
11.02905133,-7.361541595,-0.2558180237,5.166506195
11.03897933,-7.447762299,-0.2585124207,5.090763702
11.04890833,-7.280410309,-0.2880010986,4.766238556
11.05883733,-7.044201508,-0.3436853027,4.500391388
11.06876533,-7.030280457,-0.4123924255,4.630470886
11.07869433,-7.199728088,-0.5376818848,4.418511658
11.08862233,-7.347620544,-0.6249504089,4.286336517
11.09855133,-7.535479889,-0.6027964783,4.305646362
11.10847933,-7.795189819,-0.4529580688,4.320465546
11.11840833,-8.012537842,-0.3023712158,4.122577057
11.12833633,-8.069868622,-0.1585203552,3.81092514
11.13826579,-8.054750061,-0.003592529297,3.860771484
11.14819379,-8.103398895,-0.02350112915,3.99698822
11.15812279,-8.236472168,-0.1466949463,4.148473206
11.16805079,-8.229736176,-0.1516346741,3.95492569
11.17797979,-8.349337463,-0.2026785278,3.835174713
11.18790779,-8.361911316,-0.2921923828,3.856430511
11.19783679,-8.429420929,-0.4037104797,3.851490784
11.20776479,-8.518336029,-0.5086422729,3.881278839
11.21769379,-8.403375092,-0.5989045715,3.91046814
11.22762279,-8.195457458,-0.7839198303,3.961661682
11.23755079,-7.977211304,-0.9295669556,4.058510284
11.24747979,-7.886200562,-1.037492523,4.147575073
11.25740779,-7.907755737,-1.260977783,4.163292389
11.26733679,-8.153843994,-1.556463318,4.196972351
11.27726479,-8.489895172,-2.004930725,4.319268036
11.28719379,-8.873697052,-2.609972534,4.270918579
11.29712179,-9.097631378,-3.212469635,4.066743164
11.30705079,-9.149273987,-3.730691986,3.940405884
11.31697879,-9.095685425,-3.853885803,3.799399109
11.32690779,-8.810827789,-3.603157196,3.576362915
11.33683579,-8.764873352,-3.246448975,3.482807465
11.34676479,-8.861721954,-2.966082001,3.468587036
11.35669279,-8.981921997,-3.009641418,3.593726807
11.36662179,-9.152267761,-3.221750336,3.771407318
11.37655079,-9.333091736,-3.452570343,3.95956604
11.38647879,-9.505383453,-3.727099457,3.872447205
11.39640779,-9.477990417,-4.078119507,3.737877045
11.40633579,-9.693093109,-3.977678375,3.69626358
11.41626479,-9.873018951,-3.582350464,3.524570618
11.42619279,-9.698032837,-3.501967621,3.483406219
11.43612179,-9.710457001,-3.365750885,3.34180069
11.44604979,-9.641151123,-3.379372559,2.978356476
11.45597879,-9.361532593,-3.626508636,2.738854523
11.46590679,-9.223519592,-3.760480042,2.548300781
11.47583579,-9.421258392,-3.593876495,2.384990387
11.48576379,-9.776320038,-3.243006134,2.149080963
11.49569279,-10.11371841,-2.972817993,1.975442047
11.50562079,-10.36848862,-2.932551727,1.880689087
11.51554979,-10.48509613,-3.101999359,1.860181732
11.52547879,-10.33316208,-3.109034729,1.88383255
11.53540679,-10.01417542,-2.828218689,1.953737183
11.54533579,-9.718989258,-2.427501984,2.08980423
11.55526379,-9.51750824,-2.062560883,2.47360611
11.56519279,-9.192534027,-1.936223602,2.985092468
11.57512079,-8.751401367,-2.288291473,3.539988556
11.58504979,-8.366551666,-3.002156982,3.825145569
11.59497779,-8.022566986,-3.79460907,3.591331787
11.60490679,-7.753875732,-4.443060608,3.124003601
11.61483479,-7.647746429,-4.746779022,2.834056549
11.62476379,-7.719597015,-4.910388794,2.649789734
11.63469179,-7.803123322,-5.067112885,2.511926422
11.64462079,-7.981252899,-5.144052887,2.433489532
11.65454879,-8.324489136,-5.340594177,2.556084595
11.66447779,-8.644224243,-5.526058502,2.862497406
11.67440579,-9.049132233,-5.525310059,3.123853912
11.68433479,-9.272168427,-5.437143402,3.424578552
11.69426379,-9.282646637,-5.328020325,3.937861176
11.70419179,-9.093140717,-5.167853394,4.249513092
11.71412079,-8.828491058,-4.936883698,4.292773132
11.72404879,-8.606053619,-4.874912567,3.929478607
11.73397779,-8.533005524,-4.996010742,3.289259949
11.74390579,-8.525371399,-5.13552063,2.546654205
11.75383479,-8.599167938,-5.348677368,2.474204865
11.76376279,-8.76741806,-5.726791077,3.111729126
11.77369179,-9.065597992,-6.073021088,4.000131683
11.78361979,-9.377698975,-6.182593231,4.871469727
11.79354879,-9.547445984,-6.185137939,4.650678864
11.80347679,-9.558822327,-6.047873383,3.639830933
11.81340579,-9.270970917,-5.672454071,2.597698059
11.82333379,-8.722511444,-5.07235199,2.189945984
11.83326279,-8.098608856,-4.49200882,2.514022064
11.84319079,-7.690707092,-4.334236908,2.520009613
11.85311979,-7.509284363,-4.52119812,2.444416809
11.86304779,-7.420818329,-4.852758636,2.397264862
11.87297679,-7.333699493,-5.249284058,2.574945374
11.88290579,-7.374714203,-5.527256012,3.268902283
11.89283379,-7.649393005,-5.987548828,3.692671051
11.90276279,-8.145910492,-6.490652618,3.842210083
11.91269079,-8.504414978,-6.815177765,3.75718689
11.92261979,-8.592881012,-6.901997223,3.398832092
11.93254779,-8.411458282,-6.844516754,2.957100677
11.94247679,-8.052654419,-6.514602814,3.087479553
11.95240479,-7.692802734,-6.060746613,3.510050812
11.96233379,-7.454498291,-5.899980927,3.012784882
11.97226179,-7.388934631,-5.751340027,2.799029388
11.98219079,-7.310348053,-5.709726562,2.824326782
11.99211879,-7.145989838,-5.657485199,3.06682251
12.00204779,-7.009024658,-5.614973602,3.431464233
12.01197579,-7.063062286,-5.689069519,3.859573975
12.02190479,-7.261399841,-5.993386688,4.082759857
12.03183279,-7.574698334,-6.447242889,4.150868225
12.04176179,-7.912845154,-6.900799713,4.145778809
12.05168979,-8.109685822,-7.237299957,3.902085571
12.06161879,-8.107590179,-7.27322525,3.507506104
12.07154779,-7.781418457,-7.04270462,3.022065582
12.08147579,-7.21589447,-6.639443207,2.815644836
12.09140479,-6.617588654,-6.275100861,3.023562469
12.10133279,-6.080056458,-5.968538361,3.582949219
12.11126179,-5.691464539,-5.608686676,4.311035156
12.12118979,-5.667514343,-5.40226593,4.545447693
12.13111879,-6.13125,-5.321134644,4.330794067
12.14104679,-6.765331421,-5.074447632,4.09293869
12.15097579,-7.436086578,-4.660109253,3.617826691
12.16090379,-8.20937851,-4.29307251,3.233875122
12.17083279,-8.959618378,-4.007017365,3.146007843
12.18076079,-9.538314972,-3.771856384,3.264261932
12.19068979,-9.935439148,-3.731590118,3.577710114
12.20061779,-10.13811768,-3.778143311,4.114942932
12.21054679,-10.0515976,-3.898493042,4.731361084
12.22047479,-9.708511047,-4.157604218,4.654421082
12.23040379,-9.350455627,-4.528832245,3.822002106
12.24033179,-9.020541687,-4.833299103,2.950664062
12.25026079,-8.891360321,-4.83015564,2.95799881
12.26018979,-9.067394257,-4.690496063,3.686084747
12.27011779,-9.518106995,-4.674179993,4.569397888
12.28004679,-10.14560211,-4.750820618,5.215903473
12.28997479,-10.7668103,-4.824617157,5.3602034
12.29990379,-11.02098175,-4.84647171,4.872966614
12.30983179,-10.64720901,-4.747976532,3.955674133
12.31976079,-9.749076691,-4.673132172,3.115621033
12.32968879,-8.593779144,-4.510570221,2.780917053
12.33961779,-7.360344086,-4.362977142,2.888094177
12.34954579,-6.429280243,-4.233795776,3.168161774
12.35947479,-5.947881317,-3.955823822,3.28911026
12.36940279,-5.913901978,-3.524720306,3.279979248
12.37933179,-6.242768097,-3.146007843,3.120710449
12.38925979,-6.715185699,-2.767744446,3.144960022
12.39918879,-7.219037933,-2.378553772,3.285368042
12.40911679,-7.872728577,-2.067799988,3.588038635
12.41904579,-8.537945251,-1.864672394,4.01105896
12.42897379,-9.052575073,-1.82889679,4.288132782
12.43890279,-9.108858032,-1.929337921,4.264481964
12.44883079,-8.539142761,-2.03007843,4.002526703
12.45875979,-7.752827911,-2.111509094,3.554358673
12.46868879,-7.362589417,-2.302511902,3.215014343
12.47861679,-7.237150269,-2.600242767,3.220702515
12.48854579,-7.255262604,-2.98015274,3.535797272
12.49847379,-7.392676849,-3.486549683,4.011807404
12.50840279,-7.750881958,-4.19008667,4.440366211
12.51833079,-8.2174617,-5.046904907,4.586612091
12.52825979,-8.555608521,-5.679489441,4.466412048
12.53818779,-8.637937317,-5.693709869,4.109105072
12.54811679,-8.603508911,-5.005441132,3.758683777
12.55804479,-8.485254822,-4.042194214,3.623514862
12.56797379,-8.527467041,-3.202590179,3.653302917
12.57790179,-8.754844208,-2.637664948,3.844754791
12.58783079,-8.958720245,-2.21150116,4.19008667
12.59775879,-9.071435852,-1.872605896,4.42644516
12.60768779,-9.157207489,-1.63579834,4.501439209
12.61761579,-9.188043365,-1.43925705,4.272265778
12.62754479,-9.110504608,-1.285377045,3.473526764
12.63747279,-8.976383514,-0.993633728,2.628833313
12.64740179,-9.059161377,-0.2950364685,2.440674591
12.65732979,-9.540260925,0.6981481934,3.114872589
12.66725879,-10.71576645,1.322799225,4.40533905
12.67718779,-12.23226288,0.9542655945,5.700146484
12.68711579,-13.70130798,-0.3689826965,6.274651794
12.69704479,-14.44047089,-1.760788422,4.622687073
12.70697279,-13.83033966,-2.189646606,2.053429871
12.71690179,-11.75774963,-1.965113525,1.203796692
12.72682979,-9.442813568,-2.06750061,2.055974579
12.73675879,-8.209079132,-2.257605286,3.709885254
12.74668679,-7.858358459,-2.235750732,4.718487854
12.75661579,-7.900870056,-2.055076447,4.261188812
12.76654379,-7.950117645,-1.986219635,2.641556854
12.77647279,-7.816595306,-1.729802856,1.458716583
12.78640079,-7.72723114,-1.301842804,1.209784241
12.79632979,-8.046367493,-1.073417816,1.168470154
12.80625779,-9.054221649,-1.079854431,1.161584473
12.81618679,-10.10967682,-1.374441833,1.599423981
12.82611479,-10.14754807,-2.083816681,3.112926636
12.83604379,-8.912167053,-2.975811768,5.296735382
12.84597179,-7.410040741,-3.610342255,6.670578461
12.85590079,-6.226751404,-4.132157135,6.243965607
12.86582879,-5.650898895,-4.311633911,3.899091797
12.87575779,-5.274132385,-3.797004089,1.20514389
12.88568579,-4.661157074,-2.537373505,0.1345701599
12.89561479,-4.224365387,-1.328337708,1.216969299
12.90554379,-4.693938904,-0.7852670288,3.135679321
12.91547179,-5.391638031,-0.8512797546,3.894152069
12.92540079,-5.92887085,-0.7488926697,2.664908295
12.93532879,-6.620283051,-0.1549278259,0.6926097107
12.94525779,-8.283624115,0.8744815063,0.06227050781
12.95518579,-10.39887543,1.087338867,1.709295502
12.96511479,-11.71957901,0.2011816406,4.454287262
12.97504279,-12.78416519,-0.5261558533,6.727011108
12.98497179,-13.28771805,-0.9659413147,7.153025208
12.99489979,-12.99328033,-1.727707214,5.662574615
13.00482879,-11.748918,-2.333347778,4.389172668
13.01475679,-10.37582336,-1.97514267,4.397555237
13.02468579,-9.415121155,-0.9404942322,4.479584656
13.03461379,-8.871302032,0.146844635,3.893852692
13.04454279,-8.580905914,0.9243278503,2.920426941
13.05447079,-8.287516022,0.8900491333,2.236948242
13.06439979,-8.11342804,0.3728746033,2.254312134
13.07432779,-8.187973022,-0.08726852417,2.709665222
13.08425679,-8.488547974,-0.2962339783,3.146456909
13.09418479,-8.778644714,-0.3631448364,3.368594971
13.10411379,-8.963360596,-0.4189787292,3.339705048
13.11404179,-9.207652588,-0.4601431274,3.083437958
13.12397079,-9.583520966,-0.3613485718,2.63616806
13.13389979,-9.906549225,-0.4589456177,2.301913147
13.14383146,-9.946516113,-0.9430389404,2.196083221
13.15376046,-9.874066772,-1.370100861,2.234104156
13.16368846,-9.763446808,-1.638043671,2.482437744
13.17361746,-9.589508514,-1.838476868,2.834954681
13.18354546,-9.310638428,-2.014211426,3.069217529
13.19347446,-8.797804871,-2.020049286,3.293301544
13.20340246,-8.348439331,-1.766177216,3.239263916
13.21333146,-7.953710175,-1.469194794,2.993924103
13.22325946,-7.717201996,-1.284179535,2.7789711
13.23318846,-7.667205963,-1.303190002,2.683918762
13.24311646,-7.945028229,-1.614093475,2.885549469
13.25304546,-8.275091858,-2.12842392,3.307671661
13.26297346,-8.411458282,-2.676434326,3.701802063
13.27290246,-8.585246887,-3.020119629,3.825145569
13.28283046,-8.941206665,-3.356021118,3.548520813
13.29275946,-9.229956207,-3.879632263,3.10184967
13.30268746,-9.330397339,-4.299808502,2.741249542
13.31261646,-9.574988708,-4.012106781,2.467917938
13.32254446,-9.98199234,-3.015628967,2.428250427
13.33247346,-9.979148254,-2.17632431,2.512525177
13.34240146,-9.65791626,-1.645378418,2.509082336
13.35233046,-9.344019012,-1.204844513,2.240391083
13.36225846,-9.069040833,-1.071022797,1.902992706
13.37218746,-8.756640472,-1.320104828,1.612895966
13.38211646,-8.500373383,-1.707349548,1.340462494
13.39204446,-8.482111359,-1.995949402,1.102906494
13.40197346,-8.57551712,-2.222578125,0.8967851257
13.41190146,-8.829838257,-2.40923996,0.87522995
13.42183046,-9.424401855,-2.427501984,1.050515442
13.43175846,-10.02689896,-2.344125366,1.321152649
13.44168746,-10.2041304,-2.524500275,1.834884338
13.45161546,-10.0117804,-3.032244415,2.585124207
13.46154446,-9.743837585,-3.497476959,3.152594147
13.47147246,-9.643396454,-3.710783386,3.266507263
13.48140146,-9.552236023,-3.863316193,3.058290253
13.49132946,-9.343569946,-4.156406708,2.758763123
13.50125846,-9.162296906,-4.588258667,2.388283539
13.51118646,-9.016350403,-4.948409729,2.208058319
13.52111546,-9.014554138,-5.166655884,2.091450806
13.53104346,-9.155560913,-5.126239929,1.904339905
13.54097246,-9.428293762,-4.915927277,1.913321228
13.55090046,-9.664801941,-4.765041046,2.239642639
13.56082946,-9.870923309,-4.693789215,2.799328766
13.57075746,-10.08228378,-4.607119446,3.178490295
13.58068646,-10.23406815,-4.447850647,3.439248047
13.59061446,-10.25996429,-4.279750214,3.298091583
13.60054346,-10.33870056,-4.277654572,3.128194885
13.61047146,-10.5758075,-4.489164734,2.808609467
13.62040046,-10.74196198,-4.536915436,2.640059967
13.63032946,-10.68148773,-4.415667572,2.77657608
13.64025746,-10.43090881,-4.211641846,2.888243866
13.65018646,-10.07285339,-4.180356903,2.654579773
13.66011446,-9.573342133,-4.524940338,1.992057495
13.67004346,-9.220376129,-5.106181641,1.165626068
13.67997146,-8.924591217,-5.713019714,1.452729034
13.68990046,-8.542585602,-5.834866333,2.292033691
13.69982846,-8.355474701,-5.80358139,2.937042389
13.70975746,-8.168812866,-5.862708435,3.355721741
13.71968546,-7.91913208,-5.614823914,3.43071579
13.72961446,-7.635322266,-5.376818848,3.246898041
13.73954246,-7.31423996,-5.385800171,3.158881073
13.74947146,-7.032675476,-5.270988922,3.38625824
13.75939946,-6.946155396,-4.935835876,3.149450684
13.76932846,-7.138206024,-4.528832245,2.580184479
13.77925646,-7.517666931,-4.192332001,1.901046753
13.78918546,-8.087831268,-4.062252502,1.531165924
13.79911346,-8.523126068,-4.313579865,1.580712891
13.80904246,-8.479267273,-4.670288086,1.910028076
13.81897046,-8.210875397,-5.030888214,2.418221283
13.82889946,-8.179740143,-5.352120209,3.017574921
13.83882746,-8.290659485,-5.52396286,3.503015442
13.84875646,-8.624914398,-5.541177063,3.78173584
13.85868446,-9.320517883,-5.509143677,3.837120667
13.86861346,-10.13796799,-5.260959778,3.568279724
13.87854146,-10.5758075,-4.999453583,2.978655853
13.88847046,-10.41474243,-4.187242584,3.181633759
13.89839946,-9.883497162,-3.512146454,3.648961945
13.90832746,-9.251212006,-3.445385284,3.676205292
13.91825646,-8.825796661,-3.703598328,3.563040619
13.92818446,-8.75813736,-4.087549896,3.695066071
13.93811346,-8.921298065,-4.524940338,3.688180389
13.94804146,-9.123228149,-5.058880005,3.53834198
13.95797046,-9.162596283,-5.624403992,3.86945343
13.96789846,-9.205257568,-5.740861816,4.698429565
