Time (s),Acceleration x (m/s^2),Acceleration y (m/s^2),Acceleration z (m/s^2)
9.002504586,-0.9853380252682329,0.4416784385164562,1.2906719121493946
9.007259534,-0.8308725251061844,0.43630712965073537,1.0448166921203552
9.012014482,-0.6769498634262238,0.4282708407317999,0.7934788550078438
9.01676943,-0.5240410527994618,0.4173531529932332,0.5374220815253394
9.021524378,-0.3725966209930254,0.40336795090781935,0.27744213190355294
9.026279326,-0.22304297170034065,0.38616278122625475,0.014363586931063039
9.031034326,-0.07577893383465216,0.36562188920456323,-0.25096358274585495
9.035789273,0.06882746636670911,0.3416688850309803,-0.5176676066591215
9.040544221,0.21044197734892875,0.31426899757811566,-0.7848586504849682
9.045299169,0.3487668069027106,0.2834308772638719,-1.0516326836291472
9.050054117,0.48354299015959296,0.24920791492103125,-1.317075463340522
9.054809065,0.6145524142599088,0.21169904905563883,-1.5802666196068187
9.059564013,0.7416194762217422,0.17104903963804832,-1.8402838245631032
9.064318961,0.8646123542002324,0.127448192569645,-2.096207029788445
9.069073909,0.9834438763858034,0.0811315251708708,-2.3471227547240647
9.073828857,1.0980719761637037,0.0323773694099232,-2.592128409543403
9.078583805,1.2084997267564905,-0.01849458389657599,-2.8303366361399562
9.083338753,1.3147749532972848,-0.07112579006311623,-3.0608796514454966
9.088093701,1.4169894250216537,-0.12512188816967837,-3.2829135779934053
9.092848648,1.5152776348913717,-0.180056248152513,-3.4956227474117254
9.097603596,1.6098151783415542,-0.23547399757645046,-3.698223963257869
9.102358544,1.7008167468597482,-0.2908964919479652,-3.889970710171486
9.107113492,1.7885337556838365,-0.34582618639722085,-4.070157296603097
9.11186844,1.8732516280028308,-0.3997518609848241,-4.238122918262407
9.116623388,1.9552867606419246,-0.4521541468879987,-4.393255628835331
9.121378336,2.034983198312353,-0.5025112963884656,-4.534996203391386
9.126133284,2.1127090451371244,-0.5503051360029295,-4.662841878225984
9.130888284,2.18885264338255,-0.5950271393356641,-4.7763499486665655
9.135643232,2.2638185502032533,-0.6361845543409487,-4.875141203655042
9.14039818,2.338023343812237,-0.673306518684608,-4.958903172761033
9.145153128,2.411891290871301,-0.7059500967854135,-5.027393157752928
9.149908076,2.4858499070982223,-0.7337061728699037,-5.080441017038192
9.154663023,2.5603254431282245,-0.7562051359343296,-5.117951667273747
9.159417971,2.63573832755993,-0.7731222948003541,-5.13990726234707
9.164172919,2.7124985988681907,-0.7841829643898662,-5.146369005848829
9.168927867,2.791001357483215,-0.7891671678340267,-5.137478549213121
9.173682815,2.8716222688075184,-0.7879139029684046,-5.113458924028718
9.178437763,2.9547131472339387,-0.7803249260347728,-5.074614953805417
9.183192711,3.0405976502874084,-0.7663680098922414,-5.021333087938352
9.187947659,3.1295671107956706,-0.7460796386368483,-4.954080598989399
9.192702607,3.2218765334921446,-0.7195671051927596,-4.873404083909124
9.197457555,3.3177407807517745,-0.687009983208279,-4.779927210739314
9.202212503,3.41733097056774,-0.6486609495985849,-4.674347655753416
9.206967451,3.520771109107156,-0.6048459394680598,-4.557433184891929
9.211722398,3.628134981212494,-0.5559636209005385,-4.43001685178389
9.216477346,3.739443325458976,-0.5024841830194678,-4.292991313916762
9.221232294,3.8546613248704995,-0.44494743665608444,-4.147302304403097
9.225987242,3.973696448229647,-0.38396023304037513,-3.99394133185206
9.23074219,4.0963966786581665,-0.32019321228458064,-3.8339377091100384
9.235497138,4.222549165515914,-0.2543768999037154,-3.6683500307821335
9.240252086,4.35187933304083,-0.18729717581600536,-3.4982572301563994
9.245007034,4.484050474987,-0.11979014585153469,-3.3247493504850403
9.249762034,4.618663859291185,-0.05273645064965726,-3.148918165707463
9.254516982,4.7552593610363285,0.012944949010893748,-2.97184778333534
9.25927193,4.893316636134596,0.07630346783203827,-2.7946053584578108
9.264026878,5.032256842494578,0.1363640268759599,-2.6182320431286903
9.268781826,5.171444910067309,0.19213457137321108,-2.4437342897436487
9.273536773,5.3101923560772795,0.24261392487291145,-2.2720756201990047
9.278291721,5.447760636894774,0.2867999272384435,-2.104168964475425
9.283046669,5.583365023357143,0.3236978023840438,-1.940869662749283
9.287801617,5.716178981872444,0.35232870030088353,-1.7829692142728404
9.292556565,5.845339039314879,0.37173835681359174,-1.6311898442744495
9.297311513,5.969950105530891,0.38100581364355196,-1.486179947283257
9.302066461,6.089091223221279,0.3792521407512692,-1.3485104518776976
9.306821409,6.201821711070592,0.36564910260067907,-1.2186721381744094
9.311576357,6.307187662282251,0.3394277099324054,-1.097073925645519
9.316331305,6.404228757144394,0.29988659882456065,-0.984042135237586
9.321086253,6.491985344862881,0.24640017919895657,-0.8798207163465201
9.325841201,6.5695057466055395,0.17842649540654676,-0.7845724159974491
9.330596148,6.635853728477184,0.095514741993864,-0.6983808545751574
9.335351096,6.69011609000474,-0.0026876218811265826,-0.6212534596455601
9.340106044,6.73141031072046,-0.11642821571054647,-0.5531251968334193
9.344860992,6.7588921946900875,-0.24584359487769514,-0.4938630244602791
9.34961594,6.77176345046491,-0.3909536783100804,-0.44327098684658284
9.354370888,6.769279142064295,-0.5516568031893547,-0.40109585005828846
9.359125836,6.750754945309518,-0.7277254635342174,-0.36703317370869504
9.363880784,6.715574143165173,-0.9188027894281753,-0.34073370353212956
9.368635732,6.663194293683502,-1.1243998231937808,-0.321809962235159
9.37339068,6.593153504675131,-1.3438936476890297,-0.30984291142332493
9.37814568,6.505076250434106,-1.5765264198929057,-0.3043885569482713
9.382900628,6.398678667941864,-1.8214053598761462,-0.30498437622400515
9.387655576,6.273773273112124,-2.0775037410798984,-0.31115546023533713
9.392410523,6.130273041583198,-2.3436629227351338,-0.3224202836271857
9.397165471,5.968194802672321,-2.6185954596232786,-0.3382960395428236
9.401920419,5.787661898743263,-2.900889318554706,-0.3583034975822266
9.406675367,5.58890606524228,-3.1890132250185728,-0.38197136064882126
9.411430315,5.372268489415444,-3.481323157207963,-0.4088401088251082
9.416185263,5.138200008901643,-3.776069997642934,-0.43846532665446564
9.420940211,4.887260415671345,-4.071408344506426,-0.4704205159243955
9.425695159,4.620116836672683,-4.365406475307122,-0.5042994008083025
9.430450107,4.337541170336353,-4.656057444479527,-0.5397177371895449
9.435205055,4.040406567747519,-4.941291284049838,-0.5763146437596686
9.439960003,3.729682958449806,-5.218988262655874,-0.6137534789367141
9.444714951,3.406431632894769,-5.486993143181248,-0.6517222940647939
9.449469898,3.0717989058301254,-5.7431303632372295,-0.6899338988236005
9.454224846,2.7270088969179973,-5.985220045906379,-0.728125578649797
9.458979794,2.3733554763362554,-6.211094730817466,-0.7660585060752889
9.463734742,2.01219343403937,-6.418616698131867,-0.803516888446962
9.46848969,1.6449289418835018,-6.605695740888507,-0.8403068939192602
9.473244638,1.2730093881038305,-6.770307224952645,-0.8762553962986015
9.477999586,0.8979126737299034,-6.910510261130683,-0.9112085775568328
9.482754534,0.5211360703828958,-7.024465801392905,-0.945030424811446
9.487509482,0.14418474837610656,-7.11045446105862,-0.9776011564135895
9.49226443,-0.23143990704520293,-7.16689386165131,-1.0088156095463536
9.497019378,-0.6042520653197931,-7.192355285304536,-1.0385816194023885
9.501774326,-0.9727931727961204,-7.185579431449412,-1.066818417515772
9.506529326,-1.3356434882279777,-7.145491070340066,-1.093455074081109
9.511284221,-1.6914332875592848,-7.071212395965506,-1.1184290060186193
9.516039169,-2.038853591227605,-6.962074893113502,-1.1416845690606316
9.520794169,-2.3766662667392686,-6.8176295497315085,-1.1631717481608197
9.525549117,-2.703713361548133,-6.637655266095364,-1.1828449559670324
9.530304065,-3.0189255266085286,-6.422165336313905,-1.2006619438992288
9.535059013,-3.3213293994719275,-6.171411904813656,-1.2165828246983228
9.539813961,-3.610053827470557,-5.885888329885331,-1.2305691997545554
9.544568909,-3.8843348265333084,-5.5663294171654965,-1.2425833801660195
9.549323857,-4.143519189823782,-5.213709516949832,-1.2525876885764249
9.554078805,-4.3870666827559015,-4.829238509303307,-1.2605438302354777
9.558833753,-4.614550786391922,-4.414355728991277,-1.2664123263375808
9.563588701,-4.825657978421163,-3.970721907578981,-1.2701520094511902
9.568343648,-5.020185568346842,-3.5002092323039524,-1.271719588049051
9.573098596,-5.198038129992485,-3.0048896404720384,-1.271069293074992
9.577853544,-5.359222599218095,-2.4870214842405636,-1.2681526229886129
9.582608492,-5.503842127315307,-1.9490347138403763,-1.2629182044911438
9.58736344,-5.632088800593305,-1.3935147376912866,-1.255311784509247
9.592118388,-5.744235353990052,-0.8231851256618185,-1.2452763656633559
9.596873336,-5.8406260211042484,-0.2408893271088048,-1.2327524930299396
9.601628284,-5.921666674863195,0.35042842151889453,-1.2176786950626162
9.606383232,-5.987814422124874,0.9477428236734323,-1.1999920765341798
9.61113818,-6.039566821825163,1.5479677093816397,-1.1796290567497694
9.615893128,-6.077450899772624,2.1479765094727687,-1.156526242469152
9.620648076,-6.1020121338325035,2.7446228497659835,-1.1306214222649889
9.625403023,-6.113803581059235,3.334761103749251,-1.101854667568311
9.630157971,-6.113375313466079,3.9152667498122917,-1.0701695253488155
9.634912919,-6.101264321816958,4.483056387796002,-1.0355142879975567
9.639667867,-6.0779850374479,5.035107279220428,-0.9978433271531031
9.644422815,-6.044020611073785,5.568476285779261,-0.9571184795469858
9.649177763,-5.999815075169392,6.080318091283419,-0.9133104741235941
9.653932711,-5.945766503091409,6.5679026029717305,-0.8664003905263259
9.658687659,-5.882221263784838,7.028631438791533,-0.816381139471558
9.663442607,-5.809469455772512,7.460053417723823,-0.7632589555690297
9.668197555,-5.727741588198803,7.8598789803413585,-0.7070548928374253
9.672952503,-5.637206560015235,8.225993476418324,-0.6478063125591424
9.677707451,-5.537970971005225,8.55646926546521,-0.5855683522724139
9.682462398,-5.430079780345469,8.849576584494812,-0.5204153636716996
9.687217346,-5.31351830995305,9.103793145128535,-0.4524423060404275
9.691972294,-5.188215571187955,9.317812429352562,-0.3817660806277188
9.696727242,-5.054048874825908,9.49055065987645,-0.3085267901417518
9.70148219,-4.9108496658538945,9.621152427188392,-0.23288890629186992
9.706237138,-4.758410506830157,9.708994961108424,-0.1550423270856747
9.710992086,-4.596493116534832,9.753691039993877,-0.07520330439083643
9.715747034,-4.424837354642073,9.755090535845824,0.006384778873827567
9.720501982,-4.243171028379203,9.713280598501461,0.08945080361293697
9.725256982,-4.05122038380143,9.628584486970501,0.17369550412194568
9.730011878,-3.848721132583882,9.501559060861734,0.25879127574234906
9.734766878,-3.635429855276668,9.332990949799191,0.3443822245761133
9.739521826,-3.4111356139265334,9.123891423767425,0.4300844835920295
9.744276721,-3.175671600974909,8.875489992452135,0.5154868195715178
9.749031669,-2.9289266475213447,8.589226766847272,0.6001515551659468
9.753786669,-2.6708564124959744,8.266743621677564,0.6836158298182364
9.758541565,-2.40149407508382,7.909874202539559,0.7653932223810342
9.763296565,-2.1209603559241854,7.520632827104458,0.8449757568858417
9.768051513,-1.8294726981850238,7.101202335264569,0.9218363110257988
9.772806461,-1.5273534475905473,6.653920948758396,0.9954314444431482
9.777561409,-1.2150368808626193,6.1812682065993085,1.065204660771865
9.782316357,-0.8930749448164446,5.685850048582146,1.1305901134633154
9.787071305,-0.5621415834988571,5.170383125263907,1.191016760597998
9.791826253,-0.22303554819861615,4.637678419100702,1.2459129680634737
9.796581201,0.12331839524524517,4.090624267836069,1.2947115536145792
9.801336148,0.47586992587546123,3.532168887702195,1.3368552564481868
9.806091096,0.8334453346819537,2.9653025003977427,1.3718026080942682
9.810846044,1.194751415925553,2.3930391739766623,1.3990341707461946
9.815600992,1.5583810745831432,1.8183984935049868,1.418059098731888
9.82035594,1.9228206171579196,1.244387182359682,1.4284219677929042
9.825110888,2.2864586690996678,0.673980799069418,1.4297098053887827
9.829865836,2.647596638974727,0.11010563734272438,1.4215592436655042
9.834620784,3.0044606274835144,-0.4443790418410406,1.403663705340903
9.839375732,3.355214658665127,-0.9866983175791367,1.375780521836282
9.84413068,3.6979750915113168,-1.5141783291974855,1.3377378727147693
9.848885628,4.030826053197103,-2.0242622856388097,1.2894414260663385
9.853640576,4.351835720649123,-2.5145256444532738,1.2308805512509313
9.858395523,4.659073265440504,-2.9826903452857825,1.1621339690036143
9.863150471,4.950626267920592,-3.4266379876577293,1.0833747002608318
9.867905419,5.224618399612908,-3.8444218479468173,0.9948741753375718
9.872660367,5.479227167636779,-4.2342776357048395,0.8970053704084583
9.877415315,5.712701510854863,-4.5946328949875195,0.7902448493743193
9.882170263,5.923379034887105,-4.924114962719581,0.6751736061125219
9.886925211,6.109702673038093,-5.221557404100589,0.5524766239126083
9.891680159,6.270236563842116,-5.48600485554401,0.4229410940793658
9.896435107,6.403680944275487,-5.716716219210247,0.28745326255051656
9.901190055,6.50888587080768,-5.913166169872858,0.14699390033533258
9.905945003,6.584863597555653,-6.0750449541272165,0.00263241928242224
9.910699951,6.630799460614368,-6.202256483000162,-0.1444803218616682
9.915454898,6.646061139077119,-6.294914741043275,-0.2931204554312531
9.920209846,6.630206185744542,-6.35333855732752,-0.4420007031899252
9.924964794,6.582987743834148,-6.378044805826115,-0.5897810357388928
9.929719742,6.50435838999892,-6.369740123876586,-0.735080279990231
9.93447469,6.394472068409423,-6.329311257068197,-0.8764885497155124
9.939229638,6.253684105202797,-6.257814156249887,-1.0125803637534838
9.943984586,6.0825493168092954,-6.156461966665515,-1.1419283075860258
9.948739534,5.881818249041634,-6.026612059968537,-1.2631170867145138
9.953494482,5.652431605954552,-5.869752266881598,-1.374757814621722
9.95824943,5.395512948108065,-5.687486471787015,-1.475502374060113
9.963004378,5.11235975892661,-5.4815197311027655,-1.5640576878996546
9.967759326,4.804432995337608,-5.253643075578739,-1.6391997347587959
9.972514273,4.473345254753847,-5.005718153242638,-1.6997871451703648
9.977269221,4.120847704586806,-4.739661865042141,-1.7447742162016038
9.982024169,3.7488159325888946,-4.457431139421879,-1.7732231863405505
9.986779117,3.35923488611186,-4.1610079850696655,-1.7843156180937179
9.991534065,2.9541830755785323,-3.852384952708392,-1.777362743102708
9.996289013,2.5358162220477882,-3.533551127072309,-1.7518146337807163
10.00104396,2.1063505309557273,-3.206478759391957,-1.7072680768181734
10.00579891,1.6680457742694934,-2.873110639427359,-1.6434730379758888
10.01055386,1.2231883613159238,-2.53534829489562,-1.5603376251228505
10.0153088,0.774074573719312,-2.195041095132961,-1.4579314781755282
10.02006375,0.32299413127955107,-1.853976324600476,-1.3364875404445153
10.0248187,-0.1277857571341686,-1.513870279876189,-1.1964021944540413
10.02957365,-0.5760357199969206,-1.176360430895206,-1.0382337737914265
10.0343286,-1.0195788079256907,-0.8429986736363798,-0.8626994879520812
10.03908354,-1.4563042373630357,-0.5152456876185562,-0.6706708174585571
10.04383849,-1.8841802122128868,-0.19446639780357056,-0.4631674512732441
10.04859344,-2.3012657592541497,0.11807347298552624,-0.24134984851567076
10.05334839,-2.7057215277730857,0.4212097880750567,-0.006510513225345899
10.05810334,-3.095819516337542,0.7138813567646747,0.23993592410300435
10.06285828,-3.469951700140024,0.9951303210055763,0.496463720111837
10.06761323,-3.826637541087796,1.2641016307095871,0.761448024818721
10.07236818,-4.164530370104702,1.520041679167612,1.0331777734073582
10.07712313,-4.482422637280497,1.7622961786055777,1.3098693516461235
10.08187808,-4.779250030942647,1.990307363171988,1.5896809180576281
10.08663302,-5.054094471793555,2.2036106124949475,1.8707272610404244
10.09138797,-5.306185993240308,2.401830593228818,2.151095064421466
10.09614292,-5.534903524154946,2.5846770186038444,2.428858450602915
10.10089787,-5.73977459570953,2.75194012679851,2.702094666812392
10.10565282,-5.920473999771077,2.903485977918859,2.968899777249022
10.11040776,-6.076821432698156,3.0392516664805087,3.2274042223976456
10.11516271,-6.208778165232071,3.15924054157354,3.475788106661687
10.11991766,-6.3164427863591515,3.2635175203968996,3.7122960768707176
10.12467261,-6.400046076219876,3.3522045726518623,3.935251657231202
10.12942756,-6.45994506992221,3.425476443512804,4.143070910953391
10.1341825,-6.496616380037358,3.483556671752992,4.3342753050875364
10.13893745,-6.510648850292638,3.5267139473612445,4.5075036629581415
10.1436924,-6.5027356164036885,3.555258839955629,4.661523097905521
10.14844735,-6.473665652174555,3.56954091584141,4.79523883274295
10.15320229,-6.42431488014289,3.56994624807524,4.907702821279315
10.15795724,-6.355636926443175,3.556895310815762,4.998121101233118
10.16271219,-6.268653599506071,3.530841236980377,5.065859821626468
10.16746714,-6.164445171935537,3.4922684071462045,5.110449902048598
10.17222203,-6.04414054447999,3.4416913279946786,5.131590295780667
10.17697698,-5.908907370362362,3.3796537505769546,5.129149843437425
10.18173193,-5.759942217231651,3.3067279723745813,5.103167718233554
10.18648688,-5.5984608425741715,3.2235142626027717,5.05385247790245
10.19124183,-5.425688656559829,3.130640347474183,4.981579751340971
10.19599677,-5.242851443966631,3.0287608911879977,4.8868885999407485
10.20075172,-5.051166413941102,2.9185569091446357,4.7704766041614075
10.20550667,-4.85183364280563,2.8007350521636654,4.633193735231504
10.21026162,-4.646027970842965,2.6760267041385504,4.476035080023168
10.21501656,-4.434891408967186,2.5451868404507403,4.300132494204955
10.21977151,-4.219526105483914,2.4089926004539475,4.106745264766545
10.22452646,-4.000987916832965,2.268241534284275,3.897249867956678
10.22928141,-3.7802806193835985,2.1237494919882813,3.67312891262771
10.23403636,-3.5583507921177677,1.9763481313106999,3.4359593620054603
10.23879131,-3.336083392521288,1.8268820292726449,3.1874001290880596
10.24354625,-3.114298040367807,1.676205391739779,2.929179142317686
10.2483012,-2.893746016493865,1.5251783643784254,2.6630799789577044
10.25305615,-2.675107976274578,1.3746629575809077,2.3909281638277395
10.2578111,-2.4589923704446233,1.22551860696761,2.114577230774286
10.26256604,-2.245934559283574,1.0785973998013705,1.8358946435600478
10.26732099,-2.036396600112238,0.9347390059339123,1.5567476718303406
10.27207594,-1.8307676826319483,0.7947653595895625,1.2789893165662771
10.27683089,-1.6293651819601729,0.6594751452197622,1.0044443780746135
10.28158584,-1.4324362953142742,0.5296381466802198,0.7348957581888124
10.28634078,-1.2401602251750572,0.4059895239550073,0.4720710870292073
10.29109573,-1.052650869396267,0.28922408546434086,0.21762976342739423
10.29585068,-0.8699599770613191,0.17999062655131245,-0.026849503022886852
10.30060563,-0.6920807278450769,0.07888640597290318,-0.2598805613713326
10.30536058,-0.5189516921228194,-0.01354816792489766,-0.4800810142307079
10.31011552,-0.3504611289904961,-0.09683457119425928,-0.6861826532260379
10.31487047,-0.18645157964656878,-0.1705608511417484,-0.877041051003007
10.31962542,-0.02672471418110566,-0.23438590285753497,-1.0516442269752975
10.32438037,0.12895360932095049,-0.28804327741635005,-1.2091203053507158
10.32913532,0.28084811336506804,-0.3313444698746262,-1.3487440856084654
10.33389026,0.42924873603327,-0.3641816420589115,-1.4699424475682676
10.33864521,0.5744651696117729,-0.3865297425523279,-1.5722985155924096
10.34340016,0.7168213384614861,-0.39844799401849895,-1.655554509446308
10.34815511,0.8566498499453556,-0.4000807258438026,-1.7196132131029087
10.35291006,0.9942864503386097,-0.3916575378746159,-1.764537997484282
10.357665,1.1300645158199225,-0.37349278872795877,-1.790551339139028
