Time (s),Acceleration x (m/s^2),Acceleration y (m/s^2),Acceleration z (m/s^2)
9.004433345,-0.9453718417371152,0.255909213315965,0.15331291823166615
9.00918845,-0.6856879069385569,0.10705353559195854,-0.025954038608225566
9.013943606,-0.43662127846384113,-0.036185159898927906,-0.2027867036963755
9.018698762,-0.20272606533641194,-0.1726198275924744,-0.37470677030328575
9.023453918,0.011843713878332812,-0.30120423252909195,-0.5393114164825953
9.028209022,0.20342807601382953,-0.4210450895065863,-0.6943150054108814
9.032964179,0.36894447550136744,-0.5314122311260684,-0.8375891864609515
9.037719335,0.5059586086626889,-0.6317467627553958,-0.9672007022977074
9.042474491,0.6127407493724396,-0.7216671178091256,-1.0814461920079013
9.047229647,0.6883059778369741,-0.8009728743569702,-1.1788832691661424
9.051984804,0.7324369570548608,-0.8696461410646517,-1.258357153897773
9.056739908,0.7456882753271177,-0.927850275303907,-1.3190221592263438
9.061495064,0.7293718112599252,-0.9759256672146257,-1.3603573856183644
9.06625022,0.6855230820340354,-1.014382316990714,-1.3821760736071529
9.071005377,0.6168490875380048,-1.04388895324219,-1.384628206754795
9.075760533,0.5266587368340924,-1.0652584919562194,-1.3681961408785883
9.080515637,0.41877751038617694,-1.079429721753588,-1.333683247517359
9.085270793,0.297448540180647,-1.0874452224495021,-1.2821957844383332
9.09002595,0.16722274944203794,-1.0904256763819398,-1.2151184290420765
9.094781106,0.032841059235907896,-1.0895409071336417,-1.1340841184460988
9.09953621,-0.10088807401849346,-1.0859781666830435,-1.0409390198216482
9.104291366,-0.22921238360669588,-1.0809083767670915,-0.9377035945896222
9.109046522,-0.3475573443364852,-1.0754512004185686,-0.8265308122565497
9.113801679,-0.45164219481126705,-1.070639963423041,-0.7096626109316859
9.118556835,-0.5375872564297288,-1.067387552714109,-0.5893856940838399
9.123311939,-0.6020096550736271,-1.066454481530484,-0.46798770343191937
9.128067095,-0.6421049219150766,-1.0684203240833932,-0.3477147253694236
9.132822252,-0.6557124022034276,-1.073659682916667,-0.23073098328238548
9.137577408,-0.6413629210441185,-1.0823237601282178,-0.11908145018493162
9.142332512,-0.5983077223650897,-1.094328461402685,-0.014657993311753317
9.147087668,-0.5265282866523383,-1.1093497735747297,0.08083045932042159
9.151842825,-0.4267272197338878,-1.1268269284630208,0.16588335694271142
9.156597981,-0.3003009670464484,-1.1459736062481958,0.23922930471821977
9.161353137,-0.14929562734188295,-1.1657971504395284,0.2998420208776252
9.166108241,0.02365239879860589,-1.1851254741994608,0.3469514039648343
9.170863397,0.21538880109425013,-1.2026410460820425,0.38004972764763223
9.175618554,0.4223243631969584,-1.2169210642410837,0.39889305754305
9.18037371,0.6405259373190697,-1.2264826735854963,0.4034980517063426
9.185128866,0.8658126349437986,-1.229831860831825,0.39413436381638817
9.18988397,1.0938544610282475,-1.2255144877458402,0.3713129176230975
9.194639127,1.3202706947317726,-1.212167801878018,0.3357703661542941
9.199394283,1.5407254806423278,-1.188570703126145,0.2884500922029983
9.204149439,1.7510183273799196,-1.1536910465450048,0.23048014896082775
9.208904595,1.9471674991163808,-1.1067283276073738,0.1631485816736081
9.2136597,2.1254846145895367,-1.0471502247098343,0.0878766130061997
9.218414856,2.2826391242061868,-0.9747216620246941,0.006190216100888819
9.223170012,2.4157117057979294,-0.8895252974497768,-0.08030936174416367
9.227925168,2.522235989779511,-0.7919726259105566,-0.1699755299650094
9.232680325,2.600228382002084,-0.6828052064224043,-0.26114612868286685
9.237435429,2.648206088105677,-0.5630858603700422,-0.3521724429219554
9.242190585,2.6651937513255497,-0.4341800361568094,-0.441446896928946
9.246945741,2.650719393448038,-0.29772787859976046,-0.527428946509246
9.251700897,2.604800592985577,-0.15560786632739215,-0.6086687919883507
9.256456002,2.5279220413884027,-0.009893173112481059,-0.6838286484349
9.261211158,2.4210057811107055,0.13719784319617873,-0.7517014143796412
9.265966314,2.2853755411698455,0.2833554282161684,-0.8112266623183284
9.27072147,2.1227166397615593,0.4262347698683778,-0.8615039290745866
9.275476627,1.9350329162433155,0.5635131013468208,-0.9018033135912733
9.280231731,1.7246020881988724,0.6929457875271926,-0.9315733994537361
9.284986887,1.4939308099212099,0.8124196876415997,-0.9504465159729675
9.289742043,1.2457105462507079,0.9200022239542268,-0.9582413409483832
9.2944972,0.9827751817878837,1.013984780278613,-0.9549628353965398
9.299252356,0.7080610724169725,1.0929192963038625,-0.9407994906265493
9.30400746,0.4245700263182111,1.1556472017183756,-0.916117866705867
9.308762616,0.1353354871330171,1.201320133851551,-0.8814544141510511
9.313517772,-0.15660800661794647,1.2294121890402494,-0.8375046014202652
9.318272929,-0.4482521852966298,1.2397237564920773,-0.7851094201228503
9.323028085,-0.7366394757519041,1.232377260422233,-0.7252394047523512
9.327783189,-1.0188848371424004,1.2078053798856183,-0.6589763778452998
9.332538345,-1.292195412922751,1.1667325170513698,-0.5874932063145359
9.337293502,-1.5538884309840086,1.11015043842977,-0.5120319217505721
9.342048658,-1.8014077725542545,1.039289118426527,-0.43388061032665354
9.346803762,-2.0323395904183323,0.955583872459962,-0.3543495137016264
9.351558918,-2.244427296249384,0.8606398818029025,-0.27474680144185565
9.356314075,-2.4355861632403326,0.7561951896511923,-0.1963544803969017
9.361069231,-2.603917711012239,0.6440831935703165,-0.12040489994235098
9.365824387,-2.7477239610464155,0.5261955792410145,-0.04805829610269532
9.370579491,-2.865521576789776,0.4044465397023327,0.019618206612087904
9.375334647,-2.956055834850013,0.2807390080837727,0.08166974856896533
9.380089804,-3.0183143121624965,0.15693350489871974,0.1372706946598658
9.38484496,-3.0515401176926384,0.03482006794732126,0.1857390940534386
9.389600116,-3.0552444450260587,-0.08390640165995172,0.22654837903272954
9.39435522,-3.0292181730266288,-0.19766717511452153,0.2593360879519967
9.399110377,-2.973542194820755,-0.3050170340286349,0.2839094439045026
9.403865533,-2.888596110822634,-0.4046579424208123,0.3002476684871656
9.408620689,-2.775064881190174,-0.4954491783304853,0.3085009602445083
9.413375845,-2.6339430008394653,-0.5764141270432463,0.30898612082204546
9.41813095,-2.4665357409687463,-0.6467439952829396,0.30217886881826067
9.422886106,-2.2744569994543316,-0.7057987449263383,0.28870294173386496
9.427641262,-2.059623321098177,-0.7531055674938754,0.26931615027274075
9.432396418,-1.8242436881187947,-0.7883552290004247,0.24489361667328693
9.437151522,-1.5708047407337902,-0.8113966108403529,0.21640849957128933
9.441906679,-1.3020511656752782,-0.8222297582803177,0.18491058087592463
9.446661835,-1.0209610849654098,-0.8209977259539739,0.15150316233777403
9.451416991,-0.7307163858516025,-0.8079774816185159,0.11731878628374709
9.456172147,-0.4346680528779493,-0.7835700972930827,0.08349435080355155
9.460927252,-0.1362966919714752,-0.7482904225344951,0.0511462289046895
9.465682408,0.16083142855489782,-0.7027563998418872,0.02134601900258906
9.470437564,0.45311235657955296,-0.6476781490334328,-0.004902452902763382
9.47519272,0.7369558509013407,-0.5838469180398972,-0.02668429266034065
9.479947877,1.0088394496067998,-0.5121239739725294,-0.04319233231605968
9.484702981,1.2653643339579879,-0.4334294923057802,-0.05374311646149469
9.489458137,1.503311981337227,-0.3487314947668712,-0.057789740274759985
9.494213293,1.719700484886545,-0.25903488845976386,-0.05493131347857836
9.498968397,1.9118393203843806,-0.16537066936741937,-0.04491894293148479
9.503723554,2.077381269549564,-0.06878537118838038,-0.027658241087518704
9.50847871,2.2143701701540297,0.029669136970906767,-0.003208471577745072
9.513233866,2.3212831630655475,0.12894537649030755,0.028221467274831682
9.517989022,2.397066149394578,0.2280093596134485,0.06627994645650481
9.522744127,2.4411612604970117,0.3258489004871285,0.11048206519018734
9.527499283,2.45352528147714,0.4214809690609257,0.16022128930700646
9.532254439,2.4346381558177597,0.5139579291261985,0.2147828652177716
9.537009595,2.3855009333879824,0.6023725243058073,0.2733585912347034
9.541764752,2.3076227999075916,0.6858615113215613,0.33506252719503227
9.546519856,2.2029971312114465,0.7636078882138526,0.39894723621345657
9.551275012,2.0740668369804096,0.8348417262778407,0.46402017949649427
9.556030168,1.9236795846016104,0.8988396869948809,0.5292599270303556
9.560785325,1.7550338148039226,0.9549233858040451,0.5936319028428144
9.565540429,1.5716167663589817,1.0024568479857916,0.6561034501467401
9.570295585,1.3771360052485686,1.0408433818380605,0.7156580732497522
9.575050741,1.1754461895027817,1.0695222635623118,0.7713087827912304
9.579805897,0.9704729764019702,1.087965679398849,0.8221105320831857
9.584561054,0.7661360749817101,1.095676396811885,0.8671717798267632
9.589316158,0.5662734503020129,1.0921866332049601,0.9056652451019428
9.594071314,0.3745685948466078,1.0770585560401613,0.9368379336060624
9.59882647,0.19448260746151005,1.0498867837219572,0.9600205108669643
9.603581627,0.029192580638895665,1.0103031658877732,0.9746360806216762
9.608336783,-0.1184624853009704,0.9579840100104753,0.9802083971007767
9.613091887,-0.24602732660108428,0.8926597948019083,0.9763695017003823
9.617847043,-0.3514670122565467,0.8141272770125216,0.9628667317049007
9.6226022,-0.4331941822369496,0.7222637641426692,0.9395690062296528
9.627357356,-0.49008689366996067,0.6170431978281834,0.9064722569147232
9.63211246,-0.5214972880365963,0.4985535765567249,0.8637038416614117
9.636867616,-0.5272515056181338,0.3670151460187431,0.8115257610948806
9.641622772,-0.5076414480232058,0.22279870378635375,0.7503364900620252
9.646377929,-0.46340912166556936,0.06644330419449566,0.6806712392966597
9.651133033,-0.39572438226468465,-0.10132738936591149,0.6032004734134258
9.655888189,-0.30615694310879077,-0.2795908731127927,0.5187265286717164
9.660643345,-0.19664351117969822,-0.46721445272826095,0.42817819622685777
9.665398502,-0.06945088093627386,-0.6628475025428432,0.33260316337570256
9.670153606,0.0728642471414897,-0.8649180064758245,0.2331582365006315
9.674908762,0.22749803862282084,-1.07163397480603,0.13109730485659174
9.679663918,0.3914442953711667,-1.2809902314420536,0.027757043860782885
9.684419075,0.5615407223036805,-1.4907809481313936,-0.07545959953946726
9.689174231,0.7345162675604759,-1.6986181677713796,-0.17710204744707786
9.693929335,0.9070391705052281,-1.9019564116071197,-0.2756927093237599
9.698684491,1.0757653830890723,-2.098123307295765,-0.36974936591558016
9.703439647,1.2373870335006516,-2.2843560088982624,-0.45780903558728897
9.708194804,1.3886805793047172,-2.4578430081176816,-0.5384529636096481
9.712949908,1.5265542560527876,-2.6157707612123358,-0.6103322974444317
9.717705064,1.6480943737831062,-2.7553743813113742,-0.6721939379271092
9.72246022,1.7506099550883163,-2.8739914754970664,-0.7229059940138551
9.727215377,1.8316751509417804,-2.9691180449445795,-0.7614822237194799
9.731970481,1.8891688199898058,-3.038465220236508,-0.7871048207920812
9.736725637,1.9213106187513045,-3.0800154787731566,-0.7991449079428746
9.741480793,1.9266929285310315,-3.0920768933441365,-0.7971801229322629
9.74623595,1.904307943222046,-3.073333896802141,-0.7810087315199579
9.750991106,1.853569262989972,-3.022893023462565,-0.7506597687487598
9.75574621,1.774327383851352,-2.940322108798609,-0.7063987955586953
9.760501366,1.666878543488139,-2.825681499732182,-0.6487289607363084
9.765256522,1.5319664793580074,-2.679545951430478,-0.5783871783641037
9.770011679,1.3707767750008537,-2.503016064049661,-0.49633536638629877
9.774766783,1.18492361234353,-2.297718342882275,-0.40374683724935273
9.779521939,0.9764289094234063,-2.0657932438267093,-0.30198807730769284
9.784277095,0.7476940004446233,-1.8098708863664017,-0.19259628644906335
9.789032252,0.5014642013731843,-1.533034469214972,-0.07725316388761891
9.793787356,0.24078678963951528,-1.2387717982056259,0.04224448428248485
9.798542512,-0.031036898926560173,-0.930915718595902,0.16401667526379693
9.803297668,-0.3105043972520352,-0.6135746192408188,0.28613403362798767
9.808052825,-0.593969069128748,-0.29105452694703926,0.40665271932601443
9.812807981,-0.8777000158728676,0.03222538113457888,0.5236497762335696
9.817563085,-1.1579437675984166,0.35182176541581217,0.6352581728934074
9.822318241,-1.4309865626236635,0.6633583429173652,0.739700807345391
9.827073397,-1.6932160147742081,0.9626169536023275,0.8353227520067338
9.831828554,-1.9411809950928425,1.2456260511636312,0.9206210247608735
9.836583658,-2.1716486072637053,1.508744232211149,0.9942711951423431
9.841338814,-2.3816572091298744,1.7487365282561642,1.0551501788364515
9.84609397,-2.5685645200646814,1.9628413651392218,1.1023546485282816
9.850849127,-2.730089950327466,2.148826338827041,1.1352146000265193
9.855604231,-2.8643503898488354,2.3050312571371174,1.1533017591598795
9.860359387,-2.9698887982164037,2.430397244783405,1.1564326892117955
9.865114543,-3.04569504616623,2.524481094159086,1.1446666455893002
9.8698697,-3.091218576245375,2.5874544558289787,1.1182984052149068
9.874624804,-3.1063725829074147,2.6200878892636297,1.0778464552594158
9.87937996,-3.0915295649920194,2.623720223397725,1.0240370472096578
9.884135116,-3.0475082767196877,2.6002140951900317,0.9577847024062587
9.888890272,-2.975552292431489,2.551898929823014,0.8801697945693202
9.893645377,-2.8773005974343357,2.481502986108033,0.7924138398766348
9.898400533,-2.754750813842714,2.392076402682449,0.6958531077160496
9.903155689,-2.6102158595278424,2.2869074331284165,0.5919111386526976
9.907910845,-2.4462750166539036,2.1694342422457495,0.4820707296743547
9.91266595,-2.2657205512911083,2.0431547461991673,0.3678459231920122
9.917421106,-2.0715011715083684,1.9115370141065433,0.25075451403668864
9.922176262,-1.8666637271496367,1.7779327072967757,0.1322915652917181
9.926931418,-1.6542946259258773,1.6454959151254644,0.013904397844158926
9.931686522,-1.4374624541088061,1.5171095547870053,-0.10303050958334013
9.936441679,-1.2191632376878978,1.3953212423619727,-0.21722830228787982
9.941196835,-1.0022696612128346,1.2822902231566142,-0.32751383648310267
9.945951991,-0.7894853848993003,1.179746584791874,-0.4328367313857001
9.950707095,-0.5833053796510709,1.088963582145913,-0.5322830974328874
9.955462252,-0.38598295029111174,1.01074349514475,-0.625083723141214
9.960217408,-0.1995038556829853,0.9454170336856181,-0.7106185977703209
9.964972564,-0.025567676557063556,0.8928559123083685,-0.7884177601257741
9.969727668,0.13442365762044522,0.8524978522515821,-0.8581585848672116
9.974482825,0.279370481509929,0.8233829397038274,-0.919659733705982
9.979237981,0.4084736202613562,0.8041999840460607,-0.9728721000415876
9.983993137,0.5212268415540453,0.7933412852083082,-1.0178671583108128
9.988748293,0.617404247667269,0.7889640403855196,-1.05482319499059
9.993503397,0.6970433883500653,0.7890565007891431,-1.0840099487185084
9.998258554,0.7604249065351796,0.7915069295772006,-1.105772221338634
10.00301371,0.8080495270836988,0.7941734105517692,-1.1205130361859899
10.00776887,0.8406131681426614,0.7949526094623123,-1.1286769113937452
10.01252397,0.8589809019310276,0.791845690263003,-1.1307337842518896
10.01727913,0.8641604243882748,0.7830197311285012,-1.1271640705011456
10.02203428,0.8572756181967098,0.7668631626222091,-1.118445274092224
10.02678939,0.8395407166803751,0.7420339558238236,-1.105040482428119
10.03154454,0.8122355001936579,0.7074995137745866,-1.087388992930827
10.0362997,0.7766818828618373,0.6625674576998273,-1.0658992221084493
10.04105486,0.7342221754995814,0.6069067432427333,-1.040943951361083
10.04580996,0.686199239342094,0.540558785594552,-1.012857868176031
10.05056512,0.6339386744594578,0.4639385111775161,-0.9819372714108183
10.05532027,0.5787331170634541,0.37782548350636064,-0.948441729838599
10.06007543,0.5218286533108523,0.28334546875709826,-0.9125974185829837
10.06483053,0.4644132964268293,0.18194300960275653,-0.8746018116382691
10.06958569,0.40760742177810866,0.07534576157847969,-0.8346293810927606
10.07434084,0.3524560130909043,-0.034478487509594334,-0.7928379433764852
10.079096,0.29992254367143323,-0.1453710497697953,-0.7493752974747474
10.08385111,0.2508842993896072,-0.2550366342124432,-0.7043858180875454
10.08860626,0.20612894384703312,-0.36110142571392057,-0.6580166975138653
10.09336142,0.16635212767776272,-0.46117359406901226,-0.6104235719906775
10.09811658,0.13215595013817089,-0.5529048400121038,-0.5617753173181628
10.10287168,0.10404808973987188,-0.6340515717877188,-0.5122578492405251
10.10762684,0.08244143071936919,-0.7025343199733762,-0.46207681145378254
10.11238199,0.06765402388434151,-0.7564940387798431,-0.41145907621767686
10.1171371,0.059909235053379646,-0.7943440072941952,-0.3606530195950927
10.12189225,0.059335953660095794,-0.8148161317134441,-0.3099275657056557
10.12664741,0.06596875970514553,-0.817000556972132,-0.2595700212462638
10.13140256,0.0797479799366731,-0.8003776213256394,-0.20988274237518967
10.13615767,0.10051960359370718,-0.7648413294505013,-0.16117869356833386
10.14091283,0.12803507248888343,-0.7107136782641096,-0.11377597890832128
10.14566798,0.16195100677863267,-0.638749344817599,-0.06799145804129234
10.15042314,0.2018289739091177,-0.5501304364210773,-0.02413360538205398
10.15517824,0.24713545311662524,-0.446451207507153,0.01750517136986882
10.1599334,0.2972421925717002,-0.32969286221632,0.056656478789764236
10.16468855,0.3514272023800533,-0.20218878188097836,0.0930838300818351
10.16944371,0.4088766741845322,-0.06658073743013342,0.12659013686634613
10.17419881,0.46868816355875415,0.07423313707114614,0.15702445819044716
10.17895397,0.5298754072309413,0.21715762705219152,0.18428769313797977
10.18370913,0.5913751634842509,0.3589658012241271,0.20833695194907184
10.18846428,0.6520564516817742,0.49636910720807736,0.22918840315795505
10.19321939,0.7107325203756578,0.6260906969828712,0.24691846573490367
10.19797454,0.76617579243288,0.7449403528256643,0.2616632899028625
10.2027297,0.8171359238342017,0.8498892869505378,0.27361654091980536
10.2074848,0.862360976933445,0.9381430255917754,0.28302555895040454
10.21223996,0.9006215572091405,1.0072105664020834,0.29018601001497696
10.21699512,0.9307376033930113,1.0549680219760373,0.2954351679228429
10.22175027,0.9516073621017601,1.0797150360019534,0.2991439807301776
10.22650538,0.9622379265521174,1.0802223838202853,0.3017080864947081
10.23126053,0.96177658090897,1.055769345448837,0.30353795993289145
10.23601569,0.9495420734502911,1.006169663599474,0.3050483978613762
10.24077084,0.9250548486055383,0.9317851669349587,0.3066475859775888
10.24552595,0.8880652042550529,0.8335264426959792,0.3087260278596736
10.25028111,0.838578309333484,0.712840273745868,0.31164565215846085
10.25503626,0.7768750202056128,0.5716839028348016,0.31572943819719973
10.25979137,0.7035274750052972,0.41248654137102525,0.3212519067641502
10.26454652,0.6194085248577289,0.23809889149442193,0.3284308072648411
10.26930168,0.5256941790639991,0.051731788949051324,0.3374202934673361
10.27405684,0.4238583946240683,-0.1431146100456726,0.34830582041861063
10.27881194,0.31565972398766573,-0.34272939209124637,0.3611009204525292
10.2835671,0.20311954356813314,-0.543275253934633,0.375745934151196
10.28832225,0.08849181471206069,-0.740876537717613,0.39210869101126467
10.29307736,-0.02577542592356756,-0.9317086649883581,0.40998706260885504
10.29783251,-0.13708639303872344,-1.112086629201883,0.4291132549678287
10.30258767,-0.24275098073646037,-1.2785502007165763,0.4491596699327767
10.30734283,-0.3400443161212042,-1.4279435596980903,0.46974614616283333
10.31209793,-0.42627121326431006,-1.5574872010572856,0.49044838312133804
10.31685308,-0.4988340730277119,-1.6648401505785844,0.5108073484715152
10.32160824,-0.5553025746034718,-1.7481507901218316,0.5303394639780535
10.32636334,-0.5934833454877406,-1.8060949066592682,0.5485473538703372
10.3311185,-0.6114876885155132,-1.837899945939483,0.5649309231228984
10.33587366,-0.6077953948843137,-1.8433548551725276,0.5789985151429106
10.34062881,-0.5813126842635827,-1.822805327407498,0.5902778844943383
