Time (s),Acceleration x (m/s^2),Acceleration y (m/s^2),Acceleration z (m/s^2)
6.004509585,-1.2793743944943266,1.878459076272855,-0.8021362801497945
6.009509618,-1.3074986288372477,1.9250131106836248,-0.6406907584338059
6.014509618,-1.3283286418066866,1.9685433376052484,-0.4711370815742357
6.019509618,-1.3408054769829425,2.009197889516667,-0.2944744987024174
6.024508918,-1.3439075057226186,2.047094557011193,-0.11175553451446273
6.029508884,-1.3366660606064564,2.082315192358612,0.0759229214831643
6.034508184,-1.3181811183781236,2.1149011221930314,0.26742834663675313
6.039508184,-1.2876368201818342,2.1448496747692682,0.4616010179082608
6.044508217,-1.2443166070505718,2.172111899696873,0.6572620465892234
6.04950825,-1.18761774065354,2.196591528698716,0.8532209393908371
6.054508116,-1.1170649736232852,2.218145195637042,1.0482826361981503
6.059508116,-1.032323130833636,2.2365839036725723,1.2412540022211247
6.064508116,-0.9332083633872711,2.251675697893108,1.43094978049523
6.069508082,-0.8196978414765942,2.2631494739131557,1.6161980386938022
6.074508082,-0.6919376614450106,2.270699827275207,1.7958451708574859
6.079508082,-0.5502487569808112,2.2739928250621833,1.9687605386946834
6.084508115,-0.3951306248331808,2.272672560013597,2.133840857333521
6.089508148,-0.22726270176034918,2.2663683289160077,2.290014445606939
6.094508148,-0.04750326123500094,2.2547022616454244,2.4362454700186134
6.099508114,0.14311426492065712,2.237297215667457,2.5715383135886913
6.10450808,0.3433875941546401,2.2137847437913107,2.6949421952727266
6.109508046,0.5519545405012103,2.1838129411797604,2.805556152411153
6.114508012,0.7673045660984605,2.147053981499648,2.902534477905175
6.119508012,0.9877928541884944,2.1032111618807185,2.9850926761279895
6.124508045,1.2116567732468815,2.0520252920404776,3.052513967937608
6.129508078,1.4370345546610614,1.993280284371504,3.1041563368289693
6.134508111,1.6619859602986662,1.9268078286935941,3.1394600667434176
6.139508111,1.8845146720838652,1.8524910673413753,3.157955678990767
6.144508111,2.102592094124657,1.770267222730971,3.1592721328730686
6.149508077,2.3141822199954873,1.680129169731254,3.1431451137218356
6.154508077,2.5172671846817525,1.5821259878379208,3.1094251949522222
6.159508077,2.7098730937916584,1.4763625714209148,3.058085629043439
6.16450811,2.8900957033745405,1.3629984175080616,2.9892294974802827
6.16950811,3.056125513505486,1.2422457464383863,2.903095932894713
6.174508776,3.206271839011401,1.1143671379846014,2.8000651193040316
6.179508776,3.3389854321955696,0.9796728814668578,2.6806617800488
6.184509042,3.4528792553751533,0.83851824120057,2.5455568793670436
6.189509042,3.5467470350931802,0.6913008277199764,2.3955672937032477
6.194509008,3.619579274275945,0.538458241042969,2.2316532533702365
6.199509008,3.670576452386671,0.38046611620333814,2.0549134135272835
6.204509174,3.6991592052942392,0.21783665572168662,1.866577483460141
6.209509207,3.704975343891905,0.051117681836575814,1.6679964208638265
6.21450924,3.687903640546849,-0.11910781298549665,1.4606302781175367
6.21950924,3.6480543821467344,-0.29222169144660626,1.2460338654108936
6.22450854,3.585766755068802,-0.4675703941802518,1.0258404670166195
6.229508506,3.501603188346354,-0.6444645200416065,0.8017439090770143
6.234508506,3.3963408340316126,-0.8221784522188629,0.5754793278804093
6.239508506,3.2709604056270045,-0.9999502353237701,0.3488030251365044
6.244508539,3.1266326249174523,-1.1769819144219997,0.1234718197783072
6.249508539,2.9647025452366735,-1.3524405421576844,-0.09877768690168506
6.254507672,2.7866720280326662,-1.5254600450177722,-0.3162495247426242
6.259506805,2.5941806534631366,-1.6951441147215909,-0.5273080620272073
6.264505938,2.388985347940443,-1.8605702566513593,-0.7303966558669475
6.269505071,2.172939013683601,-2.0207950859233588,-0.9240549353897693
6.274505037,1.9479684473807444,-2.1748609152535368,-1.1069344509261316
6.279505037,1.7160518361490744,-2.321803629010105,-1.2778124671039297
6.284505037,1.479196118319916,-2.4606617861785023,-1.4356037230091327
6.28950507,1.2394144938027454,-2.590486842783497,-1.5793700278084337
6.29450507,0.9987043636754585,-2.7103543332835107,-1.7083276049281826
6.29950467,0.7590259708133037,-2.819375802454599,-1.8218521416972222
6.304504636,0.5222820021382811,-2.9167112362012775,-1.919481544107202
6.309504636,0.29029839760816006,-3.001581703319644,-2.0009164379092486
6.314504636,0.06480659059747113,-3.073281892089592,-2.0660184976849725
6.319504669,-0.1525726215220909,-3.1311922070720257,-2.1148067248562925
6.324504669,-0.36034340870133896,-3.1747900836739715,-2.1474518333062576
6.329504669,-0.5571473084359386,-3.203660181573948,-2.1642689357109886
6.334505069,-0.7417735991871213,-3.217503133390277,-2.165708752179654
6.339504202,-0.9131675892022482,-3.2161425524134977,-2.1523475826190013
6.344504202,-1.0704367998846014,-3.1995300431584965,-2.1248762936939714
6.349504168,-1.2128550577292616,-3.1677480107071565,-2.0840885704342473
6.354504134,-1.339864540980162,-3.1210101277410676,-2.0308686731254717
6.359504134,-1.4510758562104964,-3.0596593887969186,-1.9661789245021244
6.364504134,-1.5462662456476794,-2.9841637560373564,-1.891047132519583
6.369504167,-1.6253760478682011,-2.895109476331708,-1.8065541315049292
6.374504833,-1.6885035522001026,-2.7931922224557924,-1.7138216001347795
6.379504266,-1.7358984007343221,-2.679206278432494,-1.6140002892286036
6.384504232,-1.7679537013470485,-2.554032047202251,-1.5082587666569196
6.389504232,-1.7851970207123091,-2.418622205336071,-1.3977727616395044
6.394504232,-1.7882804281073685,-2.27398686298141,-1.2837151670246887
6.399504265,-1.777969759085046,-2.121178107358489,-1.1672467361863104
6.404505131,-1.7551332630958902,-1.961274315016971,-1.0495074912273505
6.409505997,-1.7207297913408852,-1.7953646119507072,-0.9316088416017755
6.414506863,-1.6757966710828516,-1.6245338422254794,-0.8146263975337648
6.419507729,-1.621437400867138,-1.4498483763436798,-0.6995934511475774
6.424507729,-1.5588092880381907,-1.272343051961794,-0.5874950901409847
6.429507695,-1.4891111359864329,-1.0930094938000876,-0.479262903853558
6.434507695,-1.413571074097125,-0.912786008709936,-0.3757702391816538
6.439507695,-1.333434608756194,-0.7325491979560437,-0.27782796351575667
6.444507728,-1.249952959386209,-0.5531073738223665,-0.18618069346084326
6.449508128,-1.164371729845333,-0.37519581353930914,-0.10150345141947686
6.454508128,-1.0779199533076853,-0.19947383199623903,-0.024398717011147816
6.459508094,-0.9917995387969498,-0.026523607351558818,0.04460615356168756
6.46450806,-0.9071751406923269,0.14314934805506144,0.10506116019492893
6.469508026,-0.8251644693016487,0.30911421388614224,0.15659555641658618
6.474508026,-0.7468290610688996,0.47101155445066445,0.19891941740543712
6.479508026,-0.6731655307859825,0.6285488658512622,0.2318248771798458
6.484508059,-0.6050973346415166,0.7814951761845905,0.25518702718234
6.489508959,-0.5434670812004073,0.9296749003891343,0.26896446285464914
6.494508992,-0.48902943645767255,1.0729611480609527,0.27319946027841086
6.499508992,-0.44244467775047175,1.2112686743191599,0.2680177616948898
6.504508992,-0.4042729581490568,1.3445466519593154,0.25362794680040973
6.509508958,-0.3749693466728093,1.4727714289314247,0.23032036620052834
6.514508958,-0.35487970958077636,1.5959394196731447,0.19846561417926678
6.519508958,-0.34423749420074495,1.7140602628136166,0.15851251957729717
6.524508991,-0.34316147001223707,1.8271503617739273,0.11098563543450422
6.529509557,-0.3516544728804231,1.9352269091686596,0.056482209577958055
6.534509557,-0.3696031882565209,2.0383024808407586,-0.004331380637621558
6.539509523,-0.39677899844484865,2.1363802708092576,-0.0707237453614362
6.544509489,-0.4328399081143066,2.2294500241382176,-0.14190316560300167
6.549509455,-0.47733355135652633,2.3174847104682548,-0.21702285495684723
6.554509455,-0.52970127291954,2.4004379665909306,-0.2951868077357699
6.559509488,-0.5892832658854189,2.4782423220847467,-0.37545623599898875
6.564509521,-0.655324738055686,2.550808207756234,-0.45685659097481474
6.569509554,-0.726983069595181,2.6180237324401783,-0.5383851561238706
6.574509554,-0.803335914952927,2.679755199700083,-0.6190191897140418
6.579509554,-0.883390192686984,2.735848322465342,-0.6977245844015202
6.58450952,-0.9660918976155859,2.786130081130015,-0.7734650000448448
6.589509486,-1.050336660762696,2.8304111595852737,-0.8452114138945551
6.594509486,-1.1349809739492078,2.868488884421716,-0.9119520194259317
6.599509519,-1.2188539877914497,2.9001505853427987,-0.9727023915477944
6.604509552,-1.3007697845726314,2.925177289800895,-1.0265158221486872
6.609509552,-1.379540021084462,2.943347662116301,-1.072493716574223
6.614509552,-1.4539868308782666,2.9544420969681298,-1.1097959292489323
6.619509552,-1.5229558698915562,2.9582468791310146,-1.1376509056695843
6.624509552,-1.585329383664205,2.9545583254649785,-1.1553654888713443
6.629509552,-1.6400391683174749,2.9431868310932625,-1.1623342420740517
6.634509518,-1.6860792916138938,2.923960748973043,-1.1580481367839117
6.639509518,-1.7225184353701544,2.8967300401747966,-1.1421024581288561
6.644509518,-1.7485117166378392,2.8613696406555587,-1.1142037866536225
6.649509551,-1.763311842431805,2.8177824987584303,-1.0741759271390376
6.654509551,-1.7662794513332447,2.7659022458568954,-1.0219646687357105
6.659509551,-1.756892495234436,2.7056954703731413,-0.9576412756461339
6.664509517,-1.734754516309361,2.637163572808233,-0.8814046232819445
6.669509517,-1.6996016785131722,2.5603441864680407,-0.7935819113392721
6.674509517,-1.6513084199199595,2.475312155316383,-0.6946279028258475
6.67950955,-1.589891602260709,2.3821800668559203,-0.5851226569078979
6.68450955,-1.515513047306005,2.2810983440579085,-0.4657677435371603
6.68950955,-1.4284803663283152,2.1722549059880905,-0.3373809490423174
6.69450955,-1.329246008714998,2.0558744117447034,-0.20088950395928287
6.69950955,-1.2184044787537722,1.9322171065226008,-0.057321886932975165
6.70450955,-1.0966876955386815,1.8015772920417559,0.09220171890769464
6.709509516,-0.9649584996215849,1.6642814463744307,0.2464802185882022
6.714509482,-0.8242023410082026,1.520686020634924,0.4042435273708597
6.719509482,-0.6755172156501269,1.3711749423182322,0.5641654835853774
6.724509515,-0.5201019508247385,1.2161568574088328,0.7248775973332178
6.729509548,-0.35924297281470685,1.056062145625634,0.8849834677064098
6.734509548,-0.19429972230367307,0.8913397450153203,1.0430736924216764
6.739509548,-0.02668891313009322,0.7224538232320743,1.1977410880380186
6.744509514,0.14213214264483384,0.5498803332635783,1.3475960350310128
6.749509514,0.31068289770752,0.37410349163814416,1.491281758970694
6.754509514,0.4774773585385345,0.19561221810073368,1.627489356652688
6.759509547,0.6410420295811772,0.014896577902917502,1.7549723748962234
6.764509547,0.7999337397921923,-0.1675557288635996,1.8725607510474749
6.769509547,0.9527570835073288,-0.3512627825219994,1.979173929224593
6.77450888,1.0981812177837604,-0.5357517111436558,2.073832975744565
6.77950888,1.2349557733060537,-0.7205617533220877,2.1556715310065857
6.78450888,1.3619256547488312,-0.9052470557475092,2.223945452710363
6.789508846,1.4780445283663557,-1.0893791412819864,2.2780410254872927
6.794508846,1.5823868186887702,-1.2725489803071401,2.3174816334186175
6.799508846,1.6741580617196536,-1.4543685964131357,2.341932813245094
6.804508879,1.752703488251021,-1.634472137601791,2.3512056265204877
6.809508879,1.8175147374315477,-1.8125163468685335,2.345258308289
6.814508879,1.8682346275542059,-1.9881803723754643,2.3241961683908836
6.819508845,1.9046599385619944,-2.1611648686468063,2.2882697400064296
6.824508845,1.926742189470286,-2.3311903572588024,2.237871189682904
6.829508845,1.934586423887394,-2.497994838560614,2.173529025124977
6.834508878,1.9284480476057035,-2.661330674210926,2.0959011623654873
6.839508911,1.9087277928673323,-2.8209607918992097,2.005766442428543
6.844508911,1.875964913261267,-2.9766542960476046,1.9040147176615092
6.849508911,1.830828740310996,-3.1281815989045305,1.7916356567637404
6.854508911,1.77410875686663,-3.275309212745973,1.6697064420484418
6.859508911,1.706703362629841,-3.4177943636752013,1.5393785500444588
6.864508911,1.6296075226544944,-3.5553795989429235,1.4018638155320708
6.869508877,1.5438994997780484,-3.6877875616170055,1.25841997887315
6.874508877,1.4507268765387797,-3.814716098547377,1.1103359076269361
6.879508877,1.3512920720558976,-3.9358338507937938,0.9589166681092665
6.88450891,1.2468375561686138,-4.050776452197908,0.805468604245155
6.88950891,1.1386309582650027,-4.159143434996493,0.6512845634656276
6.89450891,1.0279502620342693,-4.26049591538782,0.49762939534823475
6.899508876,0.916069269035976,-4.3543551102361215,0.3457258399965307
6.904508842,0.8042435021909249,-4.440201719987656,0.1967409208805309
6.909508808,0.693696704054327,-4.517476201538705,0.051772961576264896
6.914508808,0.5856080639126435,-4.58557994668923,-0.08816064256303437
6.919508841,0.4811002834494891,-4.643877376095671,-0.22213474937264902
6.924509541,0.38122856513939984,-4.691698955286719,-0.34932672212638743
6.929509574,0.28697058316342927,-4.728345138335406,-0.46902541889362653
6.934509574,0.19921747534493736,-4.753091245430849,-0.5806387128990331
6.939509574,0.11876587713828125,-4.765193281006829,-0.6836993320698362
6.94450954,0.04631100514182038,-4.763894696612361,-0.7778688150612901
6.94950954,-0.01755921214673638,-4.748434094890309,-0.8629394072857267
6.95450954,-0.07236896484860805,-4.71805385680231,-0.9388337628112657
6.959509573,-0.11775836532936428,-4.672009654547789,-1.0056023726125403
6.964509606,-0.15348623762307095,-4.609580789985735,-1.0634187017664545
6.969509606,-0.17943190344560264,-4.530081275685205,-1.1125720836152322
6.974508906,-0.19559597008233037,-4.432871555077707,-1.15345848434692
6.979508872,-0.20210011599316707,-4.317370740151156,-1.186569313935801
6.984508838,-0.19918585773215702,-4.183069228949887,-1.212478516181296
6.989508804,-0.1872122693921212,-4.029541549393645,-1.231828219316252
6.994508804,-0.16665261660531389,-3.856459259395062,-1.245313267551413
6.999508837,-0.13808986392051867,-3.663603715793871,-1.2536649817728232
7.00450887,-0.10221101824626316,-3.4508785074016437,-1.2576345137276552
7.009508903,-0.05980028119874072,-3.21832133226865,-1.2579761623389025
7.014508903,-0.011730997625627494,-2.9661150875393134,-1.25543101379384
7.019508903,0.0410435956754443,-2.694597932523186,-1.250711249659339
7.024508203,0.09750079896044644,-2.404272082093403,-1.2444854406085044
7.029507803,0.15656001473719897,-2.095811088710231,-1.237365108823627
7.034508069,0.2170953863297564,-1.7700653780609512,-1.2298928017151163
7.039508102,0.2779494236148991,-1.4280658163737945,-1.2225318756842916
7.044508102,0.3379475045898539,-1.071025107619774,-1.2156581437189042
7.049507702,0.39591311511619426,-0.7003368464975493,-1.209553496599189
7.054507702,0.4506836624530863,-0.31757208828410455,-1.2044015656026055
7.059507702,0.5011266718563041,0.07552666125319654,-1.2002854553985631
7.064507702,0.5461561504635787,0.4770540847433294,-1.197187539536377
7.069507668,0.5847488799423951,0.8849533174500473,-1.1949912775071656
7.074507668,0.6159603801809377,1.2970297784547247,-1.1934849815025874
7.079507668,0.6389402719781947,1.710967454641772,-1.1923674323270705
7.084507701,0.6529467583698935,2.124347468843588,-1.1912552173272282
7.089507734,0.6573599427232818,2.534668712230372,-1.1896916389420724
7.094507734,0.651693707620447,2.9393702747437604,-1.1871570209876954
7.0995077,0.6356058922442263,3.3358553674564764,-1.1830802214209126
7.104507666,0.608906527613626,3.7215163982086583,-1.1768511452477655
7.109507666,0.5715639182241957,4.093760837378728,-1.1678340394839994
7.114507999,0.5237083945271972,4.450037494485719,-1.1553813435863154
7.119508032,0.46563360192515363,4.787862818526855,-1.1388478634881753
7.124508698,0.39779523711349996,5.104846835475226,-1.1176050352533424
7.129508698,0.32080719028159005,5.3987183451128615,-1.0910550453745196
7.134508698,0.23543510069741796,5.667349016140712,-1.0586445788004069
7.139508698,0.14258738246355912,5.908776042813707,-1.0198779726666567
7.144508698,0.04330382573883757,6.1212230573821484,-0.9743295631376692
7.149508664,-0.06125807449493536,6.303119029234725,-0.9216550244483617
7.154508664,-0.16983886591162708,6.453114922427557,-0.8616015130263425
7.159508664,-0.2810947257644759,6.570097926658478,-0.7940164455544371
7.164508697,-0.3936166142234724,6.653203121009304,-0.7188547582486391
7.169508697,-0.5059506899988292,6.701822473261808,-0.636184515753763
7.174509363,-0.6166196588677513,6.7156111188460885,-0.5461907620154316
7.179509729,-0.7241447068226544,6.694490901442192,-0.4491775320308268
7.184509462,-0.8270676572732845,6.638651191315192,-0.34556797182932997
7.189509462,-0.9239729861730417,6.54854702742221,-0.2359025433961675
7.194509495,-1.0135093301741485,6.424894655331472,-0.12083532046971508
7.199509895,-1.094410130932195,6.268664555439992,-0.0011284092757418848
7.204509895,-1.1655130732806491,6.08107207541236,0.122355445409509
7.209509895,-1.225777995750373,5.863565797762893,0.24866198434531664
7.214509895,-1.274302978072013,5.617813788590136,0.376756181571931
7.219509895,-1.3103383407634956,5.34568788706232,0.5055344890337965
7.224509861,-1.3332983254267738,5.04924620762696,0.6338384318799699
7.229509827,-1.3427702600236426,4.730714038249892,0.7604693888612925
7.234509827,-1.3385210508550247,4.392463328394369,0.8842043723538867
7.239509827,-1.320500882484967,4.036990969980319,1.003812602066451
7.24450986,-1.288844048975107,3.666896083120636,1.1180726458545658
7.24950986,-1.2438668850652743,3.2848565257041065,1.2257898811012573
7.25450986,-1.186062814599822,2.89360485138393,1.3258140119733346
7.259509826,-1.116094585260172,2.4959039436947172,1.4170563628690365
7.264509492,-1.034783812533764,2.094522554555746,1.4985066579526343
7.269509492,-0.9430980102352152,1.692210973573362,1.5692489921648385
7.274509525,-0.8421353379493001,1.2916770512251659,1.6284767014803334
7.279509525,-0.7331073457658314,0.8955627954621823,1.6755058496910622
7.284509525,-0.6173200420591524,0.5064217586394598,1.7097870650145464
7.289509525,-0.4961536490494453,0.12669743046001106,1.7309154814395966
7.294509525,-0.37104144119325416,-0.24129714774511166,1.738638566519771
7.299509525,-0.24344808069142443,-0.5953983331227399,1.7328616495586373
7.304509491,-0.1148478709850463,-0.9336091853392967,1.7136510019610436
7.309509491,0.013296657064993698,-1.2541149226492216,1.6812343644896008
7.314509491,0.13955542930421153,-1.5552963424322874,1.635998863780241
7.319509524,0.262550413100239,-1.8357410387892186,1.5784863131499807
7.324509524,0.38097376883770656,-2.0942522748814385,1.5093859513689354
7.329509524,0.49360427708549176,-2.329855396644269,1.4295247370481032
7.33450949,0.5993218003396861,-2.541801706349367,1.3398553818659598
7.339509456,0.6971195940498092,-2.7295697485344683,1.2414423668776717
7.344509422,0.7861143412085526,-2.8928639965031335,1.135446236586397
7.349509422,0.8655538451208254,-3.0316109644664087,1.02310650130448
7.354355533,0.9348223730309247,-3.1459528080323915,0.9057234979281963
7.359355566,0.9934436967064832,-3.2362385135900036,0.7846395628922633
7.364355599,1.0410819232363187,-3.303012814291654,0.6612198609215432
7.369355632,1.0775402491102342,-3.347003005651346,0.5368331932805662
7.374355632,1.1027578024823228,-3.3691038661131003,0.41283308473343283
7.379355632,1.1168047622978565,-3.3703609165193638,0.290539423996361
7.384355598,1.1198759591533554,-3.351952276807239,0.17122091029663097
7.389355598,1.112283172086301,-3.315169398225175,0.05607853818622766
7.394355598,1.0944463385581706,-3.2613969645362144,-0.05376966783509638
7.399355631,1.0668838920571901,-3.1920922655575232,-0.15730247938153213
7.404355631,1.0302024333507716,-3.1087643505485976,-0.2536076851199942
7.409355631,0.9850859281121401,-3.012953267272416,-0.34189256561235587
7.414355597,0.9322846064811616,-2.9062096852553605,-0.4214925064887527
7.419355563,0.8726037204188736,-2.790075189384267,-0.49187766015037665
