Time (s),X (m/s^2),Y (m/s^2),Z (m/s^2)
6.007803792,-1.153254557260776,-2.6818081341900477,0.3114455303413918
6.017729792,-1.0559349807413358,-2.5409516639986363,0.3979963762758456
6.027654792,-0.9521021628642786,-2.4054532964086577,0.48548457194912825
6.037580792,-0.8422404966997571,-2.2774892793625305,0.5735325813081187
6.047506792,-0.7268802293915488,-2.1589607066497223,0.6617321889650924
6.057432792,-0.6065946739265788,-2.051458784064651,0.749646958964174
6.067358792,-0.4819972017336825,-1.956235816681404,0.8368152410616261
6.077284792,-0.3537380213202592,-1.8741824984297366,0.9227536985220485
6.087210792,-0.22250073716684896,-1.8058119737680407,1.0069613235702919
6.097136792,-0.08899867211554804,-1.7512510207170973,1.0889238980117508
6.107062792,0.04602907031898512,-1.7102385786501124,1.1681188518084844
6.116988792,0.1818218275947768,-1.682131717119645,1.2440204757441014
6.126914792,0.3176019016245745,-1.6659190167418871,1.3161054548185123
6.136840792,0.4525793918555611,-1.6602412104524837,1.3838586993579003
6.146766792,0.5859573345154784,-1.6634188117384028,1.4467794518982118
6.156692792,0.7169371348283708,-1.6734863339134174,1.5043876357762909
6.166618792,0.844724271642802,-1.6882325809485044,1.5562303895881724
6.176544792,0.9685342486993351,-1.7052463674759597,1.6018887072686094
6.186470792,1.0875987633359139,-1.7219669061074323,1.6409840818756294
6.196396792,1.2011720619142556,-1.735737987384205,1.6731850341409296
6.206321792,1.3085374516451715,-1.7438649751858653,1.6982133939200226
6.216247792,1.4090139397622263,-1.7436735522856468,1.7158501922360156
6.226173792,1.5019629708781577,-1.7325690807828593,1.7259410120963252
6.236099792,1.5867952289480753,-1.7080953932876932,1.7284006375353105
6.246025792,1.6629774590388495,-1.6679918051515663,1.723216835100951
6.255951792,1.7300392452083768,-1.6102471383645478,1.7104531054938612
6.265877792,1.7875796559637198,-1.5331495778685291,1.6902502596142335
6.275803792,1.8352736418358042,-1.4353312449452607,1.662826701926721
6.285729792,1.8728780445258257,-1.315806471634971,1.6284773384254956
6.295655792,1.9002370561039486,-1.1740028924001222,1.5875710603315651
6.305581792,1.9172869506978283,-1.0097846286265404,1.5405467873852128
6.315507792,1.9240599012590591,-0.8234670209213765,1.4879080904320048
6.325433792,1.9206866932462465,-0.6158225566188905,1.430216455206078
6.335359792,1.9073981587312991,-0.38807783862899303,1.3680832957413591
6.345286583,1.884525179399015,-0.1419016396306082,1.3021608700296219
6.355212583,1.8524971422661916,0.12061572409508901,1.2331322852278286
6.365137583,1.8118387730108867,0.39699128725040045,1.1617008011848213
6.375063583,1.763165315156833,0.6843860246404666,1.0885786505872894
6.384989583,1.7071760674865386,0.9796484165313945,1.0144755963224048
6.394915583,1.6446463357230652,1.2793641468991104,0.9400874463253392
6.404841583,1.5764178957009902,1.579910987803744,0.8660847451223641
6.414767583,1.503388101718801,1.8775178433132764,0.7931018589009053
6.424693583,1.4264978040739853,2.1683268706728027,0.7217266659989352
6.434619583,1.3467182635634793,2.448457563262493,0.6524910565217448
6.444545583,1.2650372686019664,2.714071666332927,0.585862433110368
6.454471583,1.182444673938657,2.9614377993922028,0.5222363893654859
6.464397583,1.0999175903515097,3.18699467648857,0.4619307226757138
6.474323583,1.0184054632559676,3.3874118472901684,0.40518091421743496
6.484249583,0.9388152849572085,3.559646928762944,0.3521371812770393
6.494175583,0.8619971895130688,3.700998360368156,0.30286317661396844
6.504101583,0.7887306797831858,3.8091527952375546,0.2573363769730534
6.514027583,0.7197117323590314,3.8822263348859174,0.21545016852475565
6.523953583,0.6555410172786058,3.918798923941265,0.17701760150758747
6.533879583,0.596713455788963,3.9179413418725924,0.14177675042829646
6.543804583,0.5436093214270775,3.8792343584166287,0.10939758068458814
6.553730583,0.49648706812329846,3.8027797559884755,0.07949018820852405
6.563656583,0.4554780447265054,3.68920306337819,0.05161424651918717
6.573582583,0.42058322904426937,3.5396479880022276,0.025289466448508942
6.583508583,0.39167208677994214,3.3557626764105417,6.848989143639472e-06
6.593434583,0.36848363205427087,3.139678072025774,-0.02475950755424892
6.603360583,0.35062973674966225,2.8939787720652674,-0.049540297666162095
6.613286583,0.3376007057890094,2.6216669081974113,-0.07485885326232
6.623212583,0.3287731045292938,2.3261196827162998,-0.10121919902802148
6.633138583,0.3234197919346752,2.011041278844054,-0.12909456718347426
6.643064583,0.3207220772171351,1.6804099269276758,-0.15891660730277793
6.652990583,0.319783875757253,1.3384209482305247,-0.19106550831063976
6.662916583,0.3196476909714012,0.9894266194341175,-0.22586122574597103
6.672842583,0.31931219340907585,0.6378737112117083,-0.2635559777292551
6.682768583,0.31775111013910523,0.28823956044714444,-0.304328138747261
6.692694583,0.31393308111628043,-0.055032457409444534,-0.3482776239190411
6.702620583,0.30684208949437797,-0.3875971800604636,-0.39542282103139587
6.712546583,0.29549803371258654,-0.7052707477093964,-0.44569909538249647
6.722471583,0.2789769835501377,-1.0040916343730975,-0.4989588634761516
6.732397583,0.25643065276670135,-1.2803787213649018,-0.5549732042311786
6.742323583,0.2271046303080092,-1.5307855185528376,-0.6134349468566652
6.752249583,0.19035494302222314,-1.7523496593940002,-0.6739631384251171
6.762175583,0.14566257545697184,-1.9425368369187144,-0.7361087524983022
6.772101583,0.09264564204149148,-2.0992784143735266,-0.7993614641106636
6.782027583,0.031068986616933497,-2.221002038439868,-0.8631573003653672
6.791953583,-0.03914893152508892,-2.3066547033952323,-0.9268869839409538
6.801879583,-0.11793191996552524,-2.3557178538976022,-0.9899048087674741
6.811805583,-0.20504467479247768,-2.3682142593413613,-1.0515379085488912
6.821731583,-0.30009403748822483,-2.3447065310795603,-1.1110957935107395
6.831657583,-0.40253272371883264,-2.2862872790118622,-1.1678800431815788
6.841583583,-0.5116653197527908,-2.194561018425951,-1.2211940582921277
6.851509583,-0.6266563180722755,-2.0716180500505046,-1.2703527882782195
6.861435583,-0.7465399538501815,-1.9200006570127781,-1.3146923511211324
6.871361583,-0.8702316069082848,-1.742662098991521,-1.353579446470321
6.881287583,-0.9965405474446621,-1.5429190315660153,-1.386420443571953
6.891212583,-1.1241838240507374,-1.3243981198165042,-1.4126700179548113
6.901138583,-1.2518011151644983,-1.090977729873205,-1.431839218249925
6.911064583,-1.3779703879750287,-0.8467256613988433,-1.4435028588282022
6.920990583,-1.501224230459998,-0.5958339319577287,-1.4473061479374605
6.930916583,-1.620066740524962,-0.3425516509246988,-1.4429704739739262
6.940842583,-1.7329908692825162,-0.09111703513244925,-1.430298286121352
6.950768583,-1.838496122800939,0.15431037413056778,-1.4091770196551945
6.960694583,-1.935106527900292,0.3897162327090979,-1.3795820290113907
6.970620583,-2.021388762062166,0.6112956040248149,-1.341578502348169
6.980546583,-2.0959703349845222,0.8155138347761928,-1.2953223405357985
6.990472583,-2.1575576909004663,0.9991631172511678,-1.2410599923703345
7.000398583,-2.204954078618004,1.1594138231999038,-1.1791272461855982
7.010324583,-2.2370770123763966,1.2938597740839348,-1.1099469846357346
7.020250583,-2.252975122561413,1.4005567056081785,-1.0340259131414569
7.030176583,-2.25184417237169,1.478053287790779,-0.951950273734286
7.040102583,-2.233041996340152,1.5254141729819317,-0.8643805570046652
7.050028583,-2.1961021013944135,1.54223466171589,-0.7720452286265509
7.059954583,-2.1407456631732957,1.5286466997323371,-0.6757334956110645
7.069880583,-2.0668916512517517,1.4853160491971948,-0.5762871509113574
7.079805583,-1.974664827418906,1.413430612873159,-0.4745915512289142
7.089731583,-1.8644013809676259,1.3146800303767894,-0.3715657994060558
7.099657583,-1.7366519931993174,1.1912268084891786,-0.26815221796192223
7.109583583,-1.5921821586329228,1.0456693903688188,-0.16530521349551144
7.119509583,-1.4319696309834538,0.8809977091217679,-0.06397964296345518
7.129435583,-1.2571989060406388,0.7005419068533041,0.03488119694547757
7.139361583,-1.0692526996804554,0.5079150276873671,0.13035782540030932
7.149287583,-0.8697004265195795,0.30695060861251544,0.22156693292180987
7.159213583,-0.6602837328336408,0.10163619236920145,0.30767367510471305
7.169139583,-0.4428991861721665,-0.10395612989457202,0.3879037235201434
7.179065583,-0.219578273314302,-0.30574097276377143,0.4615548731031829
7.188991583,0.007535092842261453,-0.49969148677946734,0.5280079884701094
7.198917583,0.23620930907114027,-0.6819105155615994,0.5867370598064476
7.208843583,0.4641517661449842,-0.8486998210684507,0.6373181331326875
7.218769583,0.6890371447041815,-0.9966261278113031,0.6794368800798931
7.228695583,0.908536946585509,-1.122582767060863,0.7128945795324576
7.238621583,1.1203498509884313,-1.2238457562877751,0.7376122997019827
7.248547583,1.3222324552328013,-1.2981232319235068,0.7536330973298345
7.258472583,1.5120299349794128,-1.3435972689962032,0.7611220928135171
7.268398583,1.6877061382446112,-1.3589572699365042,0.7603643350023818
7.278324583,1.847372611613967,-1.3434242821108862,0.7517604319397385
7.288250583,1.9893160476910832,-1.2967657995478006,0.7358199863647578
7.298176583,2.112023643848304,-1.2193008071887816,0.713152931539706
7.308102583,2.2142058785497034,-1.1118950268339192,0.6844589128612261
7.318028583,2.294816246959726,-0.9759465187502471,0.6505149063436927
7.327954583,2.353067553979151,-0.813361981007881,0.6121613087929451
7.337880583,2.388444438251605,-0.6265242688167154,0.5702867753845768
7.347805958,2.4007118885395577,-0.4182518240568534,0.5258121143434149
7.357731958,2.3899196045642617,-0.1917508537379818,0.47967357104256264
7.367657958,2.356402139148043,0.04943878164115301,0.4328058431496222
7.377583958,2.3007748330251205,0.3015029170678436,0.3861251657749055
7.387509958,2.223925618573864,0.560416555742884,0.34051279417974833
7.397435958,2.1270028267213634,0.8220103197471589,0.2967991947531941
7.407361958,2.011399184776723,1.0820387249569166,0.2557492348700131
7.417287958,1.8787322433224292,1.3362491379103372,0.21804864000313348
7.427213958,1.7308215182823732,1.5804502980949788,0.18429196234160278
7.437139958,1.5696626802247742,1.8105793256686604,0.15497227866795235
7.447065958,1.3973991663318646,2.0227661803035266,0.1304728054328359
7.456990958,1.2162916296188022,2.21339459178044,0.11106058526011224
7.466916958,1.0286856728307099,2.3791585483053335,0.09688236190968932
7.476842958,0.8369783397332159,2.5171135055900318,0.08796272106948351
7.486768958,0.6435838543061116,2.624721569265643,0.08420453335299602
7.496694958,0.45089910947732076,2.69989000478812,0.08539169452012202
7.506620958,0.26126941226438705,2.7410025410752272,0.09119411708636409
7.516546958,0.07695499183244325,2.7469430543039395,0.10117488777085289
7.526472958,-0.09990122910152917,2.7171113439883245,0.11479946690571845
7.536398958,-0.2673041112487871,2.6514308422338435,0.1314467690292731
7.546324958,-0.42343455447233624,2.5503482267946747,0.15042192862618128
7.556250958,-0.5666750880522995,2.4148250372239293,0.17097052194211212
7.566176958,-0.6956323838219217,2.246321518906442,0.19229398580274584
7.576102958,-0.809156320199609,2.046773039898871,0.21356594818007826
7.586028958,-0.9063552716015577,1.8185595379319768,0.2339491634465138
7.595954958,-0.9866073499304465,1.5644685570662975,0.25261272824520975
7.605880958,-1.0495673815872038,1.287652522622854,0.2687492420518773
7.615806958,-1.095169464208185,0.9915809768979981,0.2815915702291139
7.625732958,-1.1236250127347305,0.6799885556990094,0.29042886714439786
7.635658958,-1.1354162757144732,0.35681952691100566,0.2946215232237537
7.645583958,-1.1312853805782928,0.026169737731087172,0.29361471318942156
7.655509958,-1.1122190505602527,-0.3077731720871606,0.2869502438526491
7.665435958,-1.0794292245215984,-0.6407904356883277,0.2742764295491158
7.675361958,-1.0343299019383803,-0.9686928594957043,0.255355762609119
7.685287958,-0.9785106252356516,-1.2873807316253563,0.23007019616168609
7.695213958,-0.913707095731131,-1.592902130224813,0.19842391813976756
7.705139958,-0.8417694922825372,-1.8815088429887248,0.16054356986320237
7.715065958,-0.7646291182215766,-2.149709130374227,0.11667595021459044
7.724991958,-0.6842640383857594,-2.3943165913925455,0.06718334192057066
7.734917958,-0.6026643820872069,-2.612494425883085,0.0125366854304347
7.744843958,-0.5217979802033852,-2.8017944339786642,-0.04669311112873272
7.754769958,-0.44357697780260175,-2.9601901546386067,-0.1098454140160824
7.764695958,-0.3698260208466032,-3.0861036229466037,-0.176181361029145
7.774621958,-0.30225255786756694,-3.178425321588753,-0.24489635411262498
7.784547958,-0.2424197244209456,-3.236527013742928,-0.31513332495581436
7.794473958,-0.1917221904560947,-3.2602672660020007,-0.38599657270971266
7.804399958,-0.15136525495611466,-3.249989591012713,-0.45656597943361105
7.814325958,-0.12234737850103841,-3.206513251764898,-0.5259114115254616
7.824251958,-0.10544626068985359,-3.1311168710836985,-0.5931071222813787
7.834177958,-0.10120849846287214,-3.0255150874459327,-0.6572459784947885
7.844102958,-0.10994280394233327,-2.891828603125706,-0.7174533324905799
7.854028958,-0.1317167177356136,-2.7325480903389927,-0.7729003457803993
7.863954958,-0.16635672639555554,-2.550492550147227,-0.8228165512356447
7.873880958,-0.21345167784542876,-2.3487628390370356,-0.8665014346368398
7.883806958,-0.2723593792562198,-2.1306911694655284,-0.9033348333897924
7.893732958,-0.3422162518407554,-1.8997874448131895,-0.9327859855021113
7.903658958,-0.42194990425974255,-1.6596833115753185,-0.9544211038810578
7.913584958,-0.5102944720419712,-1.4140748145370834,-0.9679093902598073
7.923510958,-0.6058085554946562,-1.1666645354397753,-0.9730274355674987
7.933436958,-0.7068955717245866,-0.9211040885361208,-0.969661979698923
7.943362958,-0.8118263153450253,-0.6809378375727339,-0.9578110266462386
7.953288958,-0.9187634963259799,-0.4495486833275099,-0.9375833346019579
7.963214958,-1.0257879937138277,-0.2301067426942832,-0.9091963262294
7.973140958,-1.1309265333066139,-0.025521695860490207,-0.8729724892396257
7.983066958,-1.2321804680429878,0.16160048203613264,-0.8293343569233784
7.992992958,-1.3275553127464876,0.3289957607786204,-0.7787981688220698
8.002918958,-1.415090660005702,0.4747747030260403,-0.7219663135518178
8.012844958,-1.4928900817079267,0.5974490424693106,-0.6595186530053208
8.022770958,-1.5591506025241846,0.6959518032080085,-0.5922028253801117
8.032696958,-1.6121913197248399,0.7696506634100099,-0.520823627892457
8.042621958,-1.6504807400802555,0.8183543622131457,-0.44623158936682905
8.052547958,-1.672662410107348,0.842312049158366,-0.3693108556432159
8.062473958,-1.677578430225287,0.8422055796306621,-0.29096652338441525
8.072399958,-1.6642904656720174,0.8191348660416071,-0.2121115681861325
8.082325958,-1.6320978966262853,0.77459650076213,-0.13365352066756184
8.092251958,-1.580552786290818,0.7104559716490845,-0.056481050198195416
8.102177958,-1.5094713879412622,0.6289138934412738,0.018549379241388917
8.112103958,-1.4189419592209254,0.5324667770670225,0.09062661244891118
8.122029958,-1.3093287035026668,0.42386295187503326,0.15899749321517964
8.131955958,-1.1812717133529167,0.30605434017761374,0.22297896512485837
8.141881958,-1.0356828493632098,0.18214485660961352,0.281969403086169
8.151807958,-0.8737375480171401,0.05533626488054107,0.33545899316493166
8.161733958,-0.6968626138383984,-0.07112762907810512,0.3830389778140431
8.171659958,-0.5067201127764162,-0.19401753548078465,0.4244095857005689
8.181585958,-0.3051875447191923,-0.3101750579531596,0.4593864698002792
8.191511958,-0.09433453250893462,-0.41656794832510197,0.4879054838180878
8.201437958,0.12360367770493232,-0.5103433004202562,0.5100256355564209
8.211363958,0.3462555552535501,-0.5888777598920035,0.525930068021852
8.221289958,0.5711450623558831,-0.6498238582920935,0.5359249373245171
8.231215958,0.7957254231359949,-0.6911516300683547,0.5404360838062893
8.241141958,1.017414395727987,-0.7111847445353086,0.5400034317670742
8.251066958,1.2336305224985022,-0.7086304827174661,0.5352731038047643
8.260992958,1.4418298021347071,-0.6826030099458312,0.526987295013251
8.270918958,1.6395422020311328,-0.6326395340609219,0.5159720146540309
8.280844958,1.8244074120624265,-0.5587090880508067,0.5031228630420184
8.290770958,1.994209234449178,-0.46121382680191664,0.4893890656685597
8.300696958,2.1469080122530615,-0.3409828747766483,0.4757560332688222
8.310622958,2.2806705238477134,-0.1992589022201072,0.4632267547886695
8.320548958,2.3938968142539965,-0.037677740611694495,0.452802359469991
8.330474958,2.4852434964937307,0.1417585280414437,0.44546220422548416
8.340400958,2.553643134598826,0.33671446091341056,0.4421438529642384
8.350326792,2.5983194097103213,0.5445594771092047,0.4437233157525746
8.360252792,2.618797865684301,0.7624106851511889,0.45099590900674297
8.370178792,2.6149121248759712,0.9871795235612041,0.46465808624236543
8.380104792,2.586805553554161,1.2156213797303097,0.4852905753148031
8.390030792,2.5349284364968065,1.444387328064265,0.5133431435016507
8.399956792,2.4600307901092626,1.6700771199994262,0.5491212944805638
8.409882792,2.363151002857695,1.8892925625220809,0.5927751786369845
8.419808792,2.245600542408756,2.0986904362864913,0.6442909686343837
8.429734792,2.108945013041297,2.2950341289698715,0.7034849157822544
8.439660792,1.9549818867766013,2.4752431945861173,0.7700002604832
8.449586792,1.7857152679984682,2.636440095392766,0.8433071234003531
8.459511792,1.603328083376637,2.7759934394842114,0.9227054544104814
8.469437792,1.410152115321858,2.891557093391235,1.0073310650231475
8.479363792,1.2086363169274192,2.9811046239552565,1.0961647174466325
8.489289792,1.0013138589650636,3.042958606285761,1.1880441903104544
8.499215792,0.7907683650837528,3.075814423582453,1.2816791877501628
8.509141792,0.5795997902531679,3.0787582787367977,1.375668905948561
8.519067792,0.3703903902014185,3.05127923541367,1.468522020337314
8.528993792,0.1656712167990265,2.9932752059389984,1.5586788085058745
8.538919792,-0.03211044310704187,2.9050529026618355,1.6445350792317204
8.548845792,-0.22062228913357804,2.7873218662361428,1.7244675374002825
8.558771792,-0.39767651708144425,2.6411827763529336,1.79686017814303
8.568697792,-0.5612572716217751,2.4681103361131584,1.8601312715599296
8.578623792,-0.7095457249112066,2.269931098959091,1.9127604726043546
8.588549792,-0.8409424930305499,2.0487966751705424,1.953315570404277
8.598475792,-0.9540871310364633,1.8071528113492221,1.9804783791844702
8.608401792,-1.0478744764543269,1.5477048791954955,1.9930692705920219
8.618327792,-1.1214676416552727,1.2733803382851892,1.9900698555223502
8.628253792,-1.1743074900915422,0.9872887518532439,1.9706433427783423
8.638179792,-1.206118472019492,0.6926799363268794,1.9341521321660007
8.648105792,-1.2169107431443058,0.3929008168592023,1.8801722413449093
8.658031792,-1.2069785439554521,0.0913515452284326,1.8085042199952064
8.667956792,-1.1768948762449094,-0.20855858369042915,1.7191802734374437
8.677882792,-1.1275025732065829,-0.5034549019973249,1.6124674025347863
8.687808792,-1.059901916974715,-0.7900403304010197,1.4888664675259156
8.697734792,-0.9754350090897529,-1.0651370534675062,1.349107196659936
8.707660792,-0.8756671426247004,-1.3257264448531731,1.194139278122735
8.717586792,-0.762365458180486,-1.5689867923073817,1.0251197849686973
8.727512792,-0.6374751895699633,-1.7923283874765357,0.8433972767930987
8.737438792,-0.5030938200765988,-1.9934255647662145,0.6504929907439351
8.747364792,-0.3614434793141911,-2.170245297192935,0.44807957540764687
8.757290792,-0.21484191643835332,-2.3210719849718595,0.23795783760857872
8.767216792,-0.06567238822425996,-2.444528105633869,0.02203197243244014
8.777142792,0.08364720066182574,-2.5395904358962795,-0.1977162611409118
8.787068792,0.23069557226268836,-2.6056016082797626,-0.41925396989761865
8.796994792,0.3730794359647038,-2.642276829353757,-0.6405237334174736
8.806920792,0.508464606979668,-2.6497056577406872,-0.8594699922818231
