Time (s),X (m/s^2),Y (m/s^2),Z (m/s^2)
6.009903667,-0.06988388807633245,0.33131677042415086,0.11499336548344959
6.019828667,0.6795958877823122,2.9948795689737597,0.8705738515782363
6.029753667,1.411195811740725,5.647744397568061,1.6133605856912965
6.039678667,2.106895208949912,8.240190636990938,2.327675490256418
6.049603667,2.749489805613392,10.721667356072738,2.999064005590057
6.059528667,3.3231469685242425,13.041868833235458,3.6147279532348535
6.069453667,3.8139093622588995,15.151884458561112,4.163863089316543
6.079378667,4.210127126538427,17.005400595254734,4.637887367633333
6.089303667,4.502803087594419,18.55992863806868,5.030553627059934
6.099229667,4.685840669807516,19.77802977499129,5.337948369957392
6.109154667,4.756189409057974,20.628502787590893,5.55838555283249
6.119079667,4.713887746730791,21.087496900533207,5.692210220509409
6.129004667,4.562006797338588,21.139507813768347,5.74153116784995
6.138929667,4.306501919060992,20.7782124472579,5.7099047597083405
6.148854667,3.955981179445008,20.00709742197765,5.601993839894388
6.158779667,3.521401322096438,18.839838445545134,5.423226352330984
6.168704667,3.015702849373446,17.30039274979398,5.179477593283366
6.178630667,2.4533966025119223,15.422774468470193,4.8767975496482405
6.188555667,1.850114876991113,13.250493167612737,4.521200473286553
6.198480667,1.2221406163974382,10.835648405755617,4.118528017601182
6.208405667,0.5859284466920149,8.23768783302258,3.674390518365763
6.218330667,-0.04236886799367252,5.52185234471558,3.194184038525899
6.228255667,-0.6473555427309672,2.7573483350969927,2.6831743205237375
6.238180667,-1.2148172766554541,0.015303095762913317,2.146633422739937
6.248105667,-1.7321038056503784,-2.633426250865691,1.5900109846765476
6.258030667,-2.1884589130433616,-5.120508207294652,1.0191198961901966
6.267956667,-2.5752880357224806,-7.382366396044426,0.44031547349258854
6.277881667,-2.886354525051459,-9.36228835916012,-0.13935224209188607
6.287806667,-3.117896958794396,-11.012318787339675,-0.7120319880154867
6.297731667,-3.268661763810887,-12.294846842032134,-1.2690271923331924
6.307656667,-3.339847781258961,-13.183807073572204,-1.8008278078347835
6.317581667,-3.33496221393659,-13.665429315673592,-2.2972280208423403
6.327506667,-3.259590627397528,-13.738495265896567,-2.747536085918214
6.337431667,-3.1210873717397627,-13.414087518829398,-3.1408785081227055
6.347357667,-2.928196836089677,-12.714848052029351,-3.466595529343877
6.357282667,-2.6906199240518744,-11.673793485016418,-3.714717504046321
6.367207667,-2.418543488995623,-10.332759704427225,-3.8765025195997183
6.377132667,-2.122152835465704,-8.740566170090421,-3.945006083024766
6.387057667,-1.8111487489858986,-6.951000015882909,-3.915645839922669
6.396982667,-1.4942910047649287,-5.0207228967724555,-3.7867195367417508
6.406907667,-1.1789900343474151,-3.0072006732328385,-3.559833353584009
6.416832667,-0.8709673996629146,-0.9667485533449366,-3.2402002883083405
6.426758667,-0.5740038813391143,1.0472268948141035,-2.8367741477918367
6.436683667,-0.28979129071813753,2.9857216501932102,-2.362193461004234
6.446608667,-0.017900559035325146,4.805313353020144,-1.8325207496561775
6.456533667,0.24412574234872292,6.46899299433749,-1.2667754613348745
6.466458667,0.5005535349190108,7.946635489050881,-0.6862727497911576
6.476383667,0.7571131829220115,9.215114549639672,-0.11379426593194
6.486308667,1.0205413001699188,10.258085891729973,0.4273699321887435
6.496233667,1.298025941785153,11.06548022323379,0.9144586533403376
6.506159667,1.5965803944982357,11.632762911548483,1.3262993925710678
6.516084667,1.9223779736320634,11.960029833530717,1.6443315788422603
6.526009667,2.280086046869689,12.051017814617202,1.8535359913693261
6.535934667,2.672241100088496,11.912112441290091,1.9432182283181314
6.545859667,3.098707608639812,11.551435283720362,1.90760131379838
6.555784667,3.556261871201489,10.978086404532618,1.7461913172944015
6.565709667,4.03833810105614,10.20160632600836,1.4638907806976582
6.575634667,4.534967897639118,9.231704210110959,1.0708487292340962
6.585560667,5.032935129553785,8.078275991481373,0.582053131659217
6.595485667,5.516155720000689,6.751708910697744,0.016689945231349954
6.605410667,5.966276387918899,5.2634403031241,-0.6026911699552726
6.615335667,6.363469853569906,3.6267123393229963,-1.251153712961941
6.625260667,6.687388478344572,1.8574436011675979,-1.9024383098304658
6.635185667,6.918225328001306,-0.024875650415301896,-2.530058386391711
6.645110667,7.0378221180902125,-1.9963644171215362,-3.10837554200409
6.655035667,7.030757944244641,-4.028107309673262,-3.61360833914608
6.664961667,6.885351448023647,-6.085777378996568,-4.02473553513199
6.674886667,6.594512242837335,-8.129601585482533,-4.324262963124325
6.684811667,6.156384832753399,-10.11472457210868,-4.498831543036075
6.694736667,5.57473931244251,-11.992001931652258,-4.539651562976734
6.704661667,4.859076940374862,-13.70922707388612,-4.442755067579577
6.714586667,4.024434268340212,-15.212767123613473,-4.209064065076456
6.724511667,3.0908860735503163,-16.449554016944322,-3.8442776745774947
6.734436667,2.082764224449213,-17.369348517542832,-3.3585864369630825
6.744362667,1.0276262303191255,-17.927169123791533,-2.7662267407353758
6.754287667,-0.044977043457668044,-18.085756914207145,-2.084892663414007
6.764212667,-1.1048709133494545,-17.81793343758986,-1.3350267355384093
6.774137667,-2.122688610663214,-17.108703772453026,-0.5390155657407022
6.784062667,-3.0712826093159102,-15.956962355210374,0.27967888904080057
6.793987667,-3.92703084697904,-14.376675688056554,1.09741665998853
6.803912667,-4.6709577053647235,-12.397442797091452,1.8912656335542684
6.813837667,-5.289601095005744,-10.064368972431813,2.639833032058191
6.823762667,-5.775574218183914,-7.43722733119825,3.323999182843959
6.833688667,-6.127791348673893,-4.588922249729844,3.9275138647562127
6.843613667,-6.351348893399718,-1.6033055775167988,4.437424946922337
6.853538667,-6.457074175977568,1.427571158647054,4.844324105534637
6.863463667,-6.460773433862094,4.406658587426063,5.142411682757015
6.873388667,-6.382226471162261,7.235434679928286,5.329397490375565
6.883313667,-6.243987572434144,9.817608301199499,5.406263712522376
6.893238667,-6.070060284694078,12.06284831972202,5.3769201122421055
6.903163667,-5.8845175423948,13.89038388678556,5.247782217028076
6.913089667,-5.7101387433070885,15.232325703389401,5.027301799892839
6.923014667,-5.567132343302345,16.036567681497306,4.7254768161248695
6.932939667,-5.472006853860434,16.269143110856934,4.353365397511723
6.942864667,-5.436645249150488,15.915929022550747,3.9226257099460966
6.952789667,-5.467628065263794,14.983616488199493,3.4451005365138743
6.962714667,-5.565839069217177,13.499892418792223,2.932462228989075
6.972639667,-5.726374338883004,11.512809110495672,2.395929829773165
6.982564667,-5.938761116871002,9.089350299389364,1.8460654391329514
6.992490667,-6.187477410304302,6.313235720073133,1.29265137052013
7.002415667,-6.452747807682795,3.2820388402653684,0.7446437130933107
7.012340667,-6.71157625238052,0.10372309516915275,0.21019218798109593
7.022265667,-6.938963375291549,-3.107271000454601,-0.3032887464262065
7.032190667,-7.109245182032106,-6.234233514091869,-0.7890161778265846
7.042115667,-7.19748204874113,-9.162517507005585,-1.2407229198804703
7.052040667,-7.180822653617174,-11.783817639792748,-1.6525500595597629
7.061965667,-7.039767159159453,-14.000215580154212,-2.0189664328163643
7.071891667,-6.759258126275207,-15.727820097345163,-2.3347300944217566
7.081816667,-6.32953663349621,-16.89984556156851,-2.5949023716809405
7.091741667,-5.74671492972008,-17.46899741478142,-2.7949204870432887
7.101666667,-5.01303509416697,-17.409067045768275,-2.930730704201899
7.111591667,-4.136804129409752,-16.715680011658385,-2.9989804560440745
7.121516667,-3.1320172971695164,-15.406187227866045,-2.9972640111367217
7.131441667,-2.017700700412044,-13.518733486705816,-2.9244108328136833
7.141366667,-0.8170192606115613,-11.110576475166637,-2.7807987571009365
7.151292667,0.44379321026355045,-8.255759333979707,-2.568666702725753
7.161217667,1.7366187692024073,-5.042260191681168,-2.292395703579039
7.171142667,3.0326890205342307,-1.5687540132240616,-1.9587240690845305
7.181067667,4.303802057263172,2.0588731261690087,-1.5768629926880298
7.190992667,5.523460111148906,5.731118434836738,-1.1584828533821832
7.200917667,6.667871103854367,9.338432785291252,-0.717547448614107
7.210842667,7.716765462614807,12.774644813836808,-0.2699830633019319
7.220767667,8.65398992348272,15.940130321004263,0.16681883498940936
7.230693667,9.467852349498292,18.744635163551738,0.5746530240365814
7.240618667,10.151205554817913,21.10967855711528,0.9352798487356745
7.250543667,10.701273346533096,22.97048390434415,1.2312933075688415
7.260468667,11.119237859626372,24.277405210471436,1.4470287824127592
7.270393667,11.409622855874954,24.996838001341626,1.5694554812811963
7.280318667,11.57952178554801,25.111623421876814,1.5889971301403745
7.290243667,11.637730788209122,24.62097184449541,1.5002263873911847
7.300168667,11.593854355587741,23.5399470365435,1.3023831408565714
7.310094667,11.457454295151866,21.898563227822688,0.9996742589025074
7.320019667,11.237310191951295,19.74055501544557,0.6013230004060308
7.329944667,10.940851007100353,17.12188366978828,0.12135059213802671
7.339869667,10.573802447029088,14.109042731075023,-0.421909873496779
7.349794667,10.140074294444224,10.777220891185122,-1.0065478369710985
7.359719667,9.641888659472153,7.208372181521505,-1.6080206028715955
7.369644667,9.080127430636228,3.4892344779253475,-2.200257914561212
7.379569667,8.454857747357723,-0.2906708640458269,-2.7568642187233436
7.389494667,7.765979570474986,-4.041031970849891,-3.252351328585299
7.399420667,7.01393010495581,-7.672710563398428,-3.6633323569778926
7.409345667,6.200376278998639,-11.099659030589029,-3.9696102385773018
7.419270667,5.3288287297080315,-14.240774064651427,-4.15510139309684
7.429195667,4.405118346803271,-17.021670839629017,-4.208546952217941
7.439120667,3.4376884397328795,-19.376360648652337,-4.123979300493545
7.449045667,2.437670724361272,-21.248812235136324,-3.900928464895139
7.458970667,1.4187302044487706,-22.594372578329324,-3.544369038418646
7.468895667,0.39668147181492147,-23.38101672775244,-3.0644223945478255
7.478821667,-0.6111039443711225,-23.590389127065933,-2.475840379706261
7.488746667,-1.5864635758186756,-23.218592140012266,-1.7973054539708122
7.498671667,-2.5113338089988333,-22.276673085865838,-1.0505883992878968
7.508596667,-3.3687030625777417,-20.790760892469834,-0.2596080511240404
7.518521667,-4.143561251824238,-18.801808768744664,0.5505619336916698
7.528446667,-4.823776842611184,-16.364910340046016,1.3546956966217951
7.538371667,-5.4008368811096945,-13.548172633554818,2.128385651262431
7.548296667,-5.870395181344078,-10.43114850604173,2.8489408486266354
7.558221667,-6.232588384302546,-7.102851598748445,3.4961745307063468
7.568147667,-6.492096902904629,-3.6593968133794506,4.053044865582501
7.578072667,-6.657945643075543,-0.20132718668163535,4.506119603520352
7.587997667,-6.743056163200939,3.169296955450129,4.8458477189748
7.597922667,-6.763576524341143,6.351958870306484,5.066637569245623
7.607847667,-6.7380268323395525,9.250799988676512,5.166757581225088
7.617772667,-6.686307114338235,11.777686465321851,5.1480877572918695
7.627697667,-6.62861979711997,13.855123641600343,5.015756528965025
7.637622667,-6.584361932620334,15.418915221686868,4.777698458072018
7.647547667,-6.571042742672539,16.42046797140145,4.444165873744222
7.657473667,-6.603280322745893,16.828650062356132,4.027223321153969
7.667398667,-6.69192775400503,16.631122024277087,3.540248668251766
7.677323667,-6.843373671873051,15.835073736553948,2.9974596301915164
7.687248667,-7.059055571378383,14.467318839077727,2.4134799680461936
7.697173667,-7.335215578199722,12.573719002525186,1.8029558782753332
7.707099167,-7.662917824235668,10.217934155958158,1.180229710525611
7.717024167,-8.028334006384933,7.479520373881469,0.5590745937587893
7.726949167,-8.413289721760066,4.4514238341369925,-0.0475103598034879
7.736874167,-8.79604963944657,1.2369459963172122,-0.6274486014887908
7.746800167,-9.152305494236755,-2.053719417343061,-1.1696863836678093
7.756725167,-9.456318279235102,-5.307254498996548,-1.6642553933149933
7.766650167,-9.682155760820583,-8.41114909482445,-2.102310082475866
7.776575167,-9.804959200478658,-11.257643239407182,-2.4761522669306713
7.786500167,-9.802169415197108,-13.747521333575083,-2.779254505586183
7.796425167,-9.654642536080521,-15.793601176238758,-3.0062915265934618
7.806350167,-9.347590719172102,-17.323770367006603,-3.153185879809977
7.816275167,-8.871293389743784,-18.28344007139298,-3.2171707017222793
7.826200167,-8.22154070284193,-18.63731241990059,-3.1968698105043587
7.836126167,-7.399791886730192,-18.370392946173958,-3.0923939363740747
7.846051167,-6.4130543187879105,-17.488221396798107,-2.905451591144982
7.855976167,-5.27351060357777,-16.016338245745835,-2.639472687478144
7.865901167,-3.9979369936405558,-13.999044328476405,-2.2997407561847885
7.875826167,-2.60696559923262,-11.49754244062869,-1.893524359103825
7.885751167,-1.1242455828140845,-8.587570686431139,-1.430190700451336
7.895676167,0.4244432724207155,-5.3566485538366315,-0.9212767947078262
7.905601167,2.01207583428413,-1.901060008184872,-0.3804884508354026
7.915526167,3.611223226169287,1.6773048326479405,0.17640361944149896
7.925452167,5.194815660817665,5.2741352109056026,0.7317977028603135
7.935377167,6.736799647151755,8.78580899842212,1.2666443964989225
7.945302167,8.212671569839301,12.112335624200107,1.7609874045329625
7.955227167,9.599878825480557,15.160057643833632,2.194655771519679
7.965152167,10.878088845935384,17.84405204997539,2.548085823274159
7.975077167,12.029335001935838,20.090188819394786,2.8032356300074537
7.985002167,13.038056129131787,21.836820092850022,2.944541684981516
7.994927167,13.89105294369221,23.036088092230266,2.9598586170010086
8.004852167,14.577389667813407,23.654852793905324,2.8413191751956526
8.014777167,15.08827241773865,23.675250913834688,2.586053254453511
8.024703167,15.416936846820331,23.0949054090832,2.1967103415222176
8.034628167,15.558575723184909,21.92680918574773,1.6817385518123664
8.044553167,15.51033214817494,20.19890792941868,1.0553852697388493
8.054478167,15.271375677021618,17.95340492839379,0.33739958035703205
8.064403167,14.843066866314562,15.24580590568174,-0.4475652917523714
8.074328167,14.22920188618985,12.143715719698564,-1.2708323358003595
8.084253167,13.436314735641249,8.725393579126168,-2.1008291139813937
8.094178167,12.474002261408591,5.078070954185394,-2.9044143320418057
8.104103167,11.355228062115918,1.2960372577095174,-3.648340183827522
8.114028167,10.096556357771275,-2.521497652178127,-4.300777495734477
8.123954167,8.718266501715192,-6.272748349614952,-4.832823037755346
8.133879167,7.244303159968563,-9.855880820307908,-5.219905168258515
8.143804167,5.70202610415982,-13.171684184615705,-5.44300667333883
8.153729167,4.121736473869072,-16.126335844870948,-5.489632730046408
8.163654167,2.5359722386241965,-18.634194124041393,-5.354466657453198
8.173579167,0.9785831112009341,-20.620538492371608,-5.03967487525073
8.183504167,-0.5163870231042281,-22.024165242471373,-4.554843223471393
8.193429167,-1.9159651904711579,-22.799736928117515,-3.9165476890493487
8.203354167,-3.189601954238474,-22.919778094534458,-3.147582444865542
8.213279167,-4.3105394064187115,-22.3762091979651,-2.2758863498368624
8.223205167,-5.257113869160811,-21.181316799075308,-1.3332253412803046
8.233130167,-6.013908920811315,-19.36807251775084,-0.35370196817846916
8.243055167,-6.572676441949266,-16.989736295083695,0.627826163216695
8.252980167,-6.932952167499295,-14.118710230695921,1.5773310115782655
8.262905167,-7.102308002183716,-10.844645175774007,2.4631126589675225
8.272830167,-7.09620510712965,-7.271839848409961,3.257127595293903
8.282755167,-6.937437163114196,-3.516007927082604,3.9360747173206394
8.292680167,-6.655179479996602,0.29948014835697,4.482187075087577
8.302605167,-6.283684440899818,4.047748200153458,4.883702951978151
8.312530167,-5.860685449564298,7.602805887927389,5.135015601776018
8.322456167,-5.425588837627506,10.844015168978206,5.236521932549955
8.332381167,-5.0175453024850185,13.66045955015218,5.194204947937155
8.342306167,-4.673499087320425,15.955044742716305,5.01899386152877
8.352231167,-4.426314335480953,17.648166849914098,4.725951087079391
8.362156167,-4.30307418376584,18.680798098106486,4.3333378556176365
8.372081167,-4.323639777704569,19.01685997131518,3.8616105989384497
8.382006167,-4.49954413340294,18.644778901796183,3.3323987661811456
8.391931167,-4.833280141459277,17.578149572205646,2.767511547129866
8.401856167,-5.318023434378316,15.855464349396748,2.188016186486926
8.411781167,-5.937809890177736,13.538903315003544,1.6134244681884875
8.421706167,-6.668165048799924,10.712216661218665,1.0610169554041446
8.431632167,-7.477159684828436,7.4777685712168855,0.5453270292447566
8.441557167,-8.326843310174878,3.9528475562377134,0.07779877645159325
8.451482167,-9.174986642012506,0.26538089943282056,-0.3333756684571249
8.461407167,-9.977046279913795,-3.4507812863743035,-0.6832424773399165
8.471332167,-10.688251170283726,-7.060825307021671,-0.9699080290938306
8.481257167,-11.265701927913382,-10.433975253787732,-1.1942163578249274
8.491182167,-11.670371584291049,-13.448329609663666,-1.359309296964573
8.501107167,-11.868900579275898,-15.995329824749659,-1.4701022797342458
8.511032167,-11.835090487406456,-17.983671389168936,-1.5327130157236342
8.520957167,-11.551020453195616,-19.342492678515537,-1.5538828635014674
8.530882167,-11.007736952171161,-20.02371270606693,-1.54043162184843
8.540808167,-10.205498771281583,-20.003434559546424,-1.4987854037458046
8.550733167,-9.153590621978688,-19.282383018402726,-1.4346133480378913
8.560658167,-7.869745749910502,-17.885396802570472,-1.3526008486120098
8.570583167,-6.379237133357381,-15.860042001833897,-1.256374163680101
8.580508167,-4.713707933582106,-13.274449406506243,-1.148575053870044
8.590433167,-2.9098163457082182,-10.21450357499166,-1.0310675008469739
8.600358167,-1.0077699096287855,-6.780526500846823,-0.9052446069789136
8.610283167,0.9501789002283447,-3.0836053302379023,-0.7723941512548305
8.620208167,2.921209621300743,0.7582867485171311,-0.6340763314353378
8.630133167,4.863324681203977,4.624233259901671,-0.49246676208673545
8.640058167,6.736604733010975,8.394247996471801,-0.3506215762593499
8.649983167,8.504289225250075,11.952960164241333,-0.2126291901700319
8.659909167,10.133653919772009,15.193007887868067,-0.08362436320007831
8.669834167,11.59666825156845,18.018054368985496,0.030346350197745783
8.679759167,12.870426435280434,20.34535933693784,0.12260410108279728
8.689684167,13.937356701210128,22.107856918745483,0.1862442690972443
8.699609167,14.785222718572689,23.2557090717833,0.2146393102351184
8.709534125,15.406939984823879,23.75732080215255,0.20199700479794555
8.719459125,15.800237695911353,23.59981927544806,0.14392649716850717
8.729384125,15.967203333508829,22.789013494288422,0.037962306712761476
8.739309125,15.91375256962421,21.348864260436006,-0.1160008811775229
8.749234125,15.649070135797249,19.32050515978474,-0.3154029737544063
8.759160125,15.185066595601965,16.760863565096127,-0.554873289244039
8.769085125,14.535890326009065,13.74093550317194,-0.8262643876238368
8.779010125,13.717523455368182,10.343769611314722,-1.1188715154078321
8.788935125,12.747476497235848,6.662214073885663,-1.4198319237185575
8.798860125,11.644581271754891,2.7964777020605407,-1.7146864946031666
8.808785125,10.428867541861038,-1.1484465107404858,-1.9880749259783097
8.818710125,9.121497021301103,-5.065449033741135,-2.224525470622444
8.828635125,7.744719891165563,-8.8480170019457,-2.409291872039833
8.838560125,6.32181427495721,-12.39294667445644,-2.529185001680812
8.848485125,4.8769686347633785,-15.603007259273229,-2.5733457298042692
8.858410125,3.435070848037515,-18.389506204273747,-2.5339090194671154
8.868336125,2.021375589011147,-20.67470384726011,-2.4065166511259974
