Time (s),Acceleration x (m/s^2),Acceleration y (m/s^2),Acceleration z (m/s^2)
9.001227911,-0.9178562003951033,2.484380861203375,1.2829824177275377
9.006004525,-0.8300473706790976,2.9641227496146874,1.477199847934931
9.010767859,-0.7422748996769291,3.4464258998444377,1.6723983294821545
9.015557754,-0.6550672178802283,3.929884575872107,1.8675745229549645
9.020334421,-0.568920750673088,4.41303510082641,2.0616861827730206
9.025097702,-0.48429422127372274,4.894360337796428,2.253657451316201
9.02988765,-0.4016034942373428,5.372294803606928,2.442384580717363
9.034664265,-0.32121703970189774,5.845230422846663,2.6267420581068492
9.039427546,-0.24345209035662557,6.311522924250258,2.8055891046741936
9.044217494,-0.1685715537882742,6.769498875577997,2.9777765138865475
9.048994109,-0.09678173251020553,7.217463346341993,3.1421537896728013
9.053757442,-0.028230892739524553,7.653708180127008,3.2975765414193683
9.058547338,0.0369912890901878,8.076520849936859,3.4429140893992582
9.063323952,0.09885338606336837,8.484193861063847,3.5770572318728515
9.068087286,0.15738098465887843,8.875034656536835,3.6989261233809185
9.072877234,0.21265456541611985,9.247375970381585,3.807478212330273
9.077653848,0.2648065283183769,9.599586563898388,3.901716184572417
9.082417129,0.3140174061090368,9.930082270165459,3.9806958582542196
9.087207077,0.3605113234010427,10.237337262317853,4.043533973894386
9.091983692,0.4045507727853972,10.51989545217867,4.089415822540826
9.096747025,0.4464307906758755,10.776381917871122,4.117602654050384
9.101536921,0.4864726250526725,11.005514252388938,4.12743880698989
9.106313536,0.5250169945115842,11.206113719918578,4.118358501354273
9.111076869,0.5624170431684884,11.377116103056744,4.089892235224417
9.115866817,0.5990310991848242,11.5175821219431,4.041672726649102
9.120643432,0.6352153461791916,11.626707305687919,3.9734403424270295
9.125406713,0.6713165167678038,11.70383119727476,3.885047956084434
9.130196661,0.7076647160613755,11.748445775333309,3.7764651782339795
9.134973275,0.7445664801846026,11.760202979793677,3.6477819037763273
9.139736609,0.7822981707783601,11.738921233434393,3.499211122242255
9.144526504,0.8210998010090054,11.68459085769671,3.331090940161136
9.149303119,0.8611693818978053,11.59737828882789,3.1438857678330456
9.154066452,0.9026578698835719,11.477629009405073,2.9381866273516875
9.1588564,0.9456647875562749,11.325869120543247,2.71471054416357
9.163633015,0.990234579589865,11.142805491562248,2.4742989907775215
9.168396296,1.0363537552296818,10.929324436528013,2.217915358339355
9.173186244,1.0839488574546925,10.686488880830167,1.9466414395256952
9.177962859,1.132885287382123,10.415533995723116,1.6616729144611755
9.182726192,1.1829670009218323,10.117861294417063,1.3643138400228225
9.187516088,1.233937083471321,9.795031199702674,1.0559701519006062
9.192292702,1.2854791978555724,9.44875411005458,0.7381421981019947
9.197069317,1.3372198908638835,9.080880008497257,0.412416332201887
9.201845932,1.3887317345423666,8.6933866760238,0.08045560452122907
9.206622598,1.4395372697379114,8.288366588800661,-0.25601040048386203
9.211399213,1.4891137111995338,7.868012595523208,-0.5951965221168501
9.216175775,1.5368983658364925,7.434602487865014,-0.935273707887332
9.22095239,1.5822947084993064,6.990482592764711,-1.2743813456612214
9.225715723,1.624679052807402,6.538050530130094,-1.6106401547179656
9.230505671,1.6634077479645932,6.079737293263934,-1.942165537133179
9.235282286,1.697824826053064,5.6179888218068,-2.2670812812619476
9.240045619,1.727270017908471,5.155247248117522,-2.5835334996141617
9.244835515,1.7510870494107964,4.693932007618356,-2.889704674176411
9.249612182,1.7686321241011282,4.2364210115619585,-3.1838276734085955
9.254375463,1.779282492779447,3.785032086785739,-3.4641995969556216
9.259165411,1.782445006437648,3.342004891155322,-3.7291952968431965
9.263942025,1.7775645456849798,2.9094835153713126,-3.9772804178988257
9.268705359,1.764132217785664,2.489499981371238,-4.207023795760242
9.273495254,1.7416932116250898,2.083958844396703,-4.417109048631944
9.278271869,1.7098542014852078,1.6946230995561533,-4.606345199617472
9.283035202,1.6682901925628981,1.323101583951264,-4.773676170903372
9.287825098,1.616750704761389,0.97083805154905,-4.918189000549057
9.292601765,1.55506519653795,0.6391020791204253,-5.0391206488096305
9.297365046,1.4831476379671684,0.32898193656176916,-5.135863285555386
9.302154994,1.4010001526375244,0.04137952243994836,-5.207967984229425
9.306931609,1.3087156625269831,-0.22299257517225377,-5.255146789173921
9.31169489,1.2064794885453962,-0.46361188074443577,-5.277273167301455
9.316484838,1.094569880181389,-0.6801447367962592,-5.274380895775468
9.321261452,0.9733574678742529,-0.8724430048092758,-5.2466614696813
9.326024786,0.843303649413837,-1.0405388987015953,-5.194460135824702
9.330814682,0.7049579367160755,-1.184638123880231,-5.118270671888109
9.335591348,0.5589543026673791,-1.3051115205351957,-5.018729036713231
9.340354629,0.40600658017295627,-1.4024854259697912,-4.8966060199789565
9.345144577,0.24690297725512994,-1.4774309785844495,-4.752799019838082
9.349921192,0.08249978279021968,-1.5307525868214849,-4.588323076203218
9.354684473,-0.0862856530997749,-1.5633757809206161,-4.40430128573909
9.359474421,-0.2584825721884388,-1.576334654544673,-4.201954722208598
9.364251036,-0.4330749970989011,-1.5707590879352404,-3.982591982355623
9.369014369,-0.6090103545206376,-1.5478619249861352,-3.747598472613006
9.373804265,-0.7852084294813987,-1.508926254314527,-3.4984255453181463
9.378580932,-0.96057054791202,-1.4552929200373976,-3.236579584765484
9.383344213,-1.1339888870263333,-1.3883483626073334,-2.963611133556615
9.388134161,-1.3043558167571103,-1.3095128648233776,-2.681104138746411
9.392910723,-1.4705731802077389,-1.2202292539880795,-2.3906653857463573
9.397674057,-1.6315614264219849,-1.1219520888974674,-2.093914176377616
9.402464004,-1.786268514456134,-1.016137340492874,-1.7924722963665536
9.407240619,-1.933678513568825,-0.9042325580385361,-1.487954307354363
9.412003952,-2.0728198302317544,-0.787667499084591,-1.1819581894706335
9.416793848,-2.202772998628131,-0.6678451917396738,-0.8760563530005233
9.421570463,-2.3226779774812,-0.5461333924511023,-0.5717870320717598
9.426333796,-2.4317409026480896,-0.42385640214117565,-0.2706460702724579
9.431123744,-2.5292402520534027,-0.3022872087418264,0.0259208913867336
9.435900359,-2.6145323870698958,-0.18263993528832947,0.31652580898018967
9.44066364,-2.6870564418776612,-0.06606258954616333,0.5998451887820923
9.445453588,-2.746338539043493,0.046369867671533414,0.874626564763112
9.450230202,-2.7919953152470396,0.15366209529499097,1.1396944577304227
9.454993536,-2.823736745822902,0.25490452391021934,1.393955769761108
9.459783432,-2.8413682607653787,0.3492790070658681,1.6364045697960259
9.464560046,-2.8447921480549248,0.43606388033176335,1.866126232977813
9.469323379,-2.8340082425033946,0.5146383310088197,2.0823009051954564
9.474113327,-2.8091138997900784,0.5844859821463532,2.284206273386993
9.478889942,-2.770303256224854,0.6451976007397522,2.4712196304846223
9.483653223,-2.7178657754962283,0.696472850688117,2.6428192312791374
9.488443171,-2.6521840848150546,0.7381210252631794,2.7985849420559
9.493219786,-2.5737311049853813,0.7700607104712597,2.9381981927231258
9.497983119,-2.483066482392902,0.7923183488316949,3.061441245353833
9.502773015,-2.3808323358401564,0.8050256919075837,3.1681957976414763
9.507549629,-2.2677483374812817,0.8084161487286607,3.258440943842707
9.512312963,-2.144606154517547,0.8028200555532302,3.33225051952306
9.517102911,-2.012263286372875,0.7886589099130695,3.389789860009453
9.521879525,-1.8716363402989864,0.7664386283818838,3.4313120060213484
9.52665614,-1.7236937963139467,0.7367419028723194,3.45715339356178
9.531432754,-1.5694483196745603,0.7002197443753049,3.4677290687691054
9.536209369,-1.4099486854430223,0.6575823157792514,3.463527471944026
9.540972702,-1.2462713849852731,0.6095891666235345,3.4451048382194203
9.545762598,-1.0795119884250621,0.5570389922487172,3.4130792652022914
9.550539265,-0.9107763402776029,0.5007590477168893,3.3681245003194746
9.555302546,-0.7411716678590143,0.4415943529927539,3.3109635025281166
9.560092494,-0.5717976837522922,0.3803968300698507,3.2423618345091922
9.564869109,-0.4037377646645385,0.3180145148172647,3.1631209424309694
9.56963239,-0.2380502893947579,0.2552809860882075,3.07407138080928
9.574422338,-0.07576021825089632,0.1930051518494071,2.9760660398391243
9.579198952,0.08214900500330204,0.1319615266021906,2.869973431747952
9.583962286,0.2347431498543191,0.07288112613799759,2.7566710911745234
9.588752182,0.3811444189971585,0.016443094811129433,2.6370391423557797
9.593528796,0.5205381208353416,-0.03673283272137349,2.51195408318091
9.598292129,0.652178729778951,-0.08609294852305317,2.382282833202339
9.603082077,0.7753952766860858,-0.13115519694504604,2.2488770897155246
9.607858692,0.8895960197472511,-0.17151375580141442,2.1125680331420518
9.612621973,0.9942723546782817,-0.20684253766786642,1.9741614201049724
9.617411921,1.0890019320727322,-0.23689759299283614,1.8344330995886269
9.622188536,1.1734509590074922,-0.2615184132456119,1.6941249842445678
9.626951869,1.2473756713113087,-0.28062814788481794,1.5539415051223926
9.631741765,1.3106229720870026,-0.2942327632071543,1.4145465738015863
9.636518379,1.3631302409446595,-0.3024191839227976,1.2765610710196351
9.641281713,1.4049243268523173,-0.30535246952754813,1.1405608753714098
9.646071609,1.436119745523048,-0.30327208724741156,1.0070754394600026
9.650848275,1.4569161098589025,-0.2964873516332662,0.8765869140432644
9.655611557,1.467594829183623,-0.2853721079211746,0.7495298133612516
9.660401504,1.4685151198003603,-0.2703587421841737,0.6262912071272698
9.665178119,1.46010937574845,-0.2519316062046549,0.5072114168201205
9.669941452,1.442877954412174,-0.2306199489904041,0.39258518612213833
9.674731348,1.4173834367454077,-0.2069904500077161,0.28266328779162864
9.679507963,1.3842444262178417,-0.1816394515391279,0.1776545221287927
9.684271296,1.3441289540908536,-0.1551849890822805,0.07772805570292261
9.689061244,1.2977475612667932,-0.1282587193498779,-0.016983956609566437
9.693837859,1.2458461287401628,-0.10149784513813837,-0.10638352774405668
9.69860114,1.1891985296639886,-0.075537135006494,-0.19040383742693365
9.703391088,1.128599176298439,-0.05100113325560813,-0.26900614054923766
9.708167702,1.0648555346928066,-0.02849665203622799,-0.34217665181687823
9.712931036,0.9987806789001014,-0.008605632553437733,-0.4099234723848558
9.717720932,0.9311859548358624,0.008121543708939142,-0.47227362148507074
9.722497546,0.862873821541429,0.02117221994037261,-0.5292702318655569
9.727260879,0.7946309345505677,0.030077039405592986,-0.5809699622235256
9.732050827,0.7272215322347939,0.03441487445464082,-0.627440672819803
9.736827442,0.6613811813793865,0.03381706182247609,-0.6687594022608414
9.741590723,0.5978109328315571,0.0279709068611383,-0.7050106742749039
9.746380671,0.5371719319633205,0.016622429517319813,-0.7362851535245808
9.751157286,0.4800805220927563,-0.00042166498609464445,-0.7626786594551258
9.7559339,0.4271038721511781,-0.023292797884595314,-0.7842915372170322
9.760710515,0.37875615302729276,-0.05206010859426985,-0.8012283750987119
9.765487129,0.33549528040970394,-0.0867308149180787,-0.8135980488674004
9.770263744,0.29772023579070794,-0.12725132169492925,-0.8215140650861953
9.775040411,0.2657689717007052,-0.17350904988126198,-0.8250951679427957
9.779817025,0.23991690220756118,-0.2253349506514489,-0.8244661674420357
9.784580307,0.22037597513561172,-0.28250666223770515,-0.8197589410106971
9.789370254,0.20729431818860167,-0.34475226087132604,-0.8111135556789068
9.794146869,0.20075644705577325,-0.4117545513236459,-0.7986794541147381
9.798910202,0.20078401952239397,-0.48315583720477545,-0.7826166450246304
9.803700098,0.2073371155213591,-0.5585631064389424,-0.7630968369635384
9.808476713,0.22031601893738198,-0.6375535633216667,-0.7403044546343936
9.813240046,0.23956347285142618,-0.7196804354255378,-0.7144374785489307
9.818029994,0.2648673758678836,-0.804478981502154,-0.6857080527698629
9.822806609,0.29596388330351353,-0.8914726255317773,-0.6543428116464108
9.82756989,0.3325408734598967,-0.9801791422215773,-0.6205828851098065
9.832359838,0.3742417360776302,-1.0701168204529483,-0.5846835529680148
9.837136452,0.4206694374827791,-1.160810533218026,-0.5469135310702649
9.841913067,0.4713908149454354,-1.25179764519159,-0.5075538852908926
9.846689682,0.5259410514079426,-1.3426336919959907,-0.4668965820892942
9.851466296,0.5838282810421133,-1.43289776824949,-0.4252426961810475
9.856229629,0.644538276126092,-1.5221975645698702,-0.3829003060866315
9.861019577,0.7075391665655189,-1.6101739968763573,-0.34018211675341387
9.865796192,0.7722861450446614,-1.6965053747221241,-0.2974028550480081
9.870559473,0.8382261132244174,-1.7809110591686135,-0.2548764888055037
9.875349421,0.904802227490485,-1.8631545650522974,-0.21291332345561276
9.880126036,0.9714583063730675,-1.9430460675336816,-0.1718170321565023
9.884889369,1.037643065804914,-2.020444278648875,-0.13188167595335198
9.889679265,1.1028141527624669,-2.0952576662342137,-0.09338876982116812
9.894455879,1.1664419524406748,-2.167444995010904,-0.056604448633006246
9.899219161,1.228013148829569,-2.237015177655343,-0.021776784214611607
9.904009161,1.287034023275033,-2.304026432121802,0.010866699175811309
9.908785775,1.3430334802144106,-2.3685847500726647,0.041121268237294284
9.913549057,1.3955657936965093,-2.430841689768301,0.06880694550421648
9.918339004,1.4442130724715252,-2.490991514984704,0.09377016426760676
9.923115619,1.488587445350047,-2.5492677093221414,0.11588508861802002
9.927878952,1.5283329721814156,-2.6059389025296524,0.13505458081216634
9.932668848,1.5631272891746275,-2.661304252106171,0.1512108058861254
9.937445463,1.5926830003195889,-2.7156883294005953,0.164315471684926
9.942208796,1.6167488292476286,-2.769435564735592,0.1743597110891069
9.946998744,1.6351105478225008,-2.8229043107821754,0.18136362193237193
9.951775359,1.6475916988479689,-2.8764605875650022,0.18537548855617883
9.95653864,1.6540541302862,-2.9304715760908757,0.18647071669006757
9.961328588,1.6543983571636,-2.9852989306364375,0.18475051991846425
9.966105202,1.6485637649062923,-3.041291982161183,0.18034040099757356
9.970868536,1.6365286643306403,-3.0987809070873564,0.1733884744315488
9.975658432,1.6183102041131168,-3.1580699367786575,0.1640636778445966
9.980435046,1.5939641415145962,-3.2194306834386675,0.1525539187809872
9.985198379,1.5635844667425847,-3.2830956578367236,0.13906420077465423
9.989988327,1.5273028710081638,-3.349252053267622,0.12381476813934286
9.99476489,1.485288043550859,-3.4180358684853696,0.10703930331139645
9.999528223,1.4377447791242461,-3.48952644005212,0.08898320414630251
10.00431817,1.3849128750059199,-3.563741451666874,0.06990196175278789
10.00909479,1.3270657957063812,-3.640632484685345,0.05005965262348738
10.01385812,1.2645090842470146,-3.7200811703520076,0.029727552252598922
10.01864802,1.1975785011069997,-3.801896000362196,0.00918287124875531
10.02342463,1.1266378755840678,-3.885809848291404,-0.011292390782718474
10.02818796,1.0520766591670734,-3.971478250069371,-0.0314124835189517
10.03297791,0.9743071762640674,-4.058478486818568,-0.050888850840183436
10.03775452,0.8937615739086615,-4.146309507774863,-0.069431000629998
10.04251781,0.8108884786156211,-4.234392724517958,-0.08674732056956218
10.04730775,0.7261493752841045,-4.32207370039059,-0.102545863053079
10.05208437,0.6400147299602198,-4.408624750944459,-0.11653512366402398
10.05686098,0.5529598853215525,-4.493248462710382,-0.12842483851466166
10.0616376,0.4654607647628677,-4.575082128689552,-0.13792682637740575
10.06641421,0.3779894276921935,-4.653203089786677,-0.14475590200806907
10.07117755,0.2910095248465883,-4.726634962029721,-0.14863088731179222
10.07596749,0.20497170794145622,-4.794354719943847,-0.14927574684227948
10.08074411,0.12030905270314245,-4.855300596977769,-0.14642087328655884
10.08550739,0.037432558272092305,-4.9083807544952975,-0.13980454678539306
10.09029734,-0.043273210958278914,-4.952482661552223,-0.12917458892622688
10.09507395,-0.1214542729095153,-4.9864831184246245,-0.11429022786487174
10.09983729,-0.1967910956797299,-5.009258847575513,-0.09492418527027212
10.10462718,-0.26900211687591175,-5.019697566451185,-0.0708649887958766
10.1094038,-0.33784684714744256,-5.016709447329037,-0.04191950585209301
10.11416713,-0.4031284933713139,-4.999238860684609,-0.007915685959182338
10.11895708,-0.4646960406540516,-4.96627629061515,0.03129450969499215
10.12373369,-0.522445736924044,-4.916870304207371,0.07583202127908674
10.12849697,-0.5763219295258388,-4.850139451774982,0.12578748353329236
10.13328692,-0.6263172102703454,-4.7652839718775954,0.18121794379457679
10.13806354,-0.6724718342856508,-4.661597174045567,0.2421435555554298
10.14282687,-0.7148723890760731,-4.538476373107888,0.30854430341837796
10.14761676,-0.7536497035272279,-4.395433251804711,0.3803568193108898
10.15239338,-0.7889760019807627,-4.232103532785071,0.4574713523425121
10.15715671,-0.8210613253543049,-4.048255846950808,0.53972895534006
10.16194666,-0.8501492586716904,-3.8437996922021433,0.6269189497686887
10.16672328,-0.8765120212523745,-3.6187923847573886,0.7187767277735556
10.17148656,-0.9004449913170512,-3.373444914152546,0.8149819461912515
10.1762765,-0.922260750355573,-3.1081266225535096,0.915157163422849
10.18105312,-0.9422827440233085,-2.8233686388670325,1.0188669666198937
10.18581645,-0.9608386655132598,-2.5198660080261113,1.125617633796639
10.19060635,-0.9782536743083766,-2.1984784655223732,1.234857372794361
10.19538296,-0.9948435679938357,-1.8602298166743478,1.3459771756710424
10.2001463,-1.010908027454102,-1.5063058893089787,1.45831232220273
10.20493624,-1.0267240563556437,-1.1380510376375155,1.5711445591714213
10.20971286,-1.0425397343708454,-0.7569631843367685,1.6837049728692872
10.21447614,-1.0585684001406548,-0.3646873974854043,1.7951775611289331
10.21926609,-1.0749833744988733,0.03699199063825004,1.9047034988740084
10.2240427,-1.0919133270122867,0.4461607045854276,2.011386078519181
10.22880604,-1.1094383794645737,0.8607852559544726,2.1142962944101793
10.23359593,-1.127587028532783,1.278725038873171,2.212479029665212
10.23837255,-1.1463339565131188,1.6977457327039867,2.3049597948267277
10.24313588,-1.1655987834415948,2.1155339391020074,2.3907519609174623
10.24792583,-1.1852457962886143,2.529712965140089,2.46886442473562
10.25270244,-1.2050846713262147,2.9378596483805564,2.5383096411507187
10.25746572,-1.224872184989777,3.337522103794675,2.598111955219664
10.26225567,-1.2443148878172305,3.726238256761184,2.647316165500886
10.26703229,-1.2630726968477695,4.10155501163716,2.68499624842944
10.27179562,-1.2807633454375302,4.4610478922551895,2.7102641716864975
10.27658552,-1.2969676163206294,4.802340979679696,2.7222787221502656
10.28136218,-1.311235273695235,5.123126963928307,2.7202542715185767
10.28612546,-1.3230916025594406,5.421187120208716,2.7034694003925575
10.29091541,-1.3320444578517052,5.694411016510685,2.6712752997801594
10.29569203,-1.337591721687081,5.940815758055298,2.623103867777654
10.30045531,-1.3392290638380155,6.158564575045991,2.5584754186919363
10.30524525,-1.3364578985295874,6.345984563277755,2.4770059221137277
10.31002187,-1.3287934297167776,6.501583392307774,2.378413690474444
10.3147852,-1.3157726774269956,6.624064802914618,2.262525435455511
10.3195751,-1.2969623795391838,6.71234272431396,2.1292816162982584
10.32435177,-1.2719666664829599,6.76555385192464,1.9787410065981317
10.32911505,-1.2404344106710012,6.783068538301993,1.811084410564607
10.33390499,-1.202066157904251,6.764499863130406,1.6266174649965068
10.33868161,-1.1566205543903565,6.709710762873622,1.4257724693666505
10.34344494,-1.1039201902599782,6.618819116794903,1.209109193418269
10.34823484,-1.0438567883996321,6.492200703518094,0.9773146195127088
10.35301145,-0.9763956758567209,6.330489960992714,0.7312015855719177
10.35777479,-0.9015794837960083,6.134578502499152,0.4717063037404714
