Time (s),Acceleration x (m/s^2),Acceleration y (m/s^2),Acceleration z (m/s^2)
6.00142469,-1.1987051368001922,1.8004494493737684,1.4415117509153996
6.006179482,-1.254572491593978,1.9297294595859251,1.4680372226843321
6.010934273,-1.294334388717291,2.0418208887406912,1.4955708716317495
6.015689117,-1.3161570214145444,2.1347277526120196,1.5243535096097358
6.020443909,-1.318366131311067,2.2066340877206816,1.5545464423964628
6.0251987,-1.2994753211981955,2.2559339406648764,1.5862274880712595
6.029953492,-1.2582130208544557,2.2812594331761917,1.6193884356344388
6.034708284,-1.1935477109151935,2.281506435802016,1.6539339758396516
6.039463128,-1.1047110105727833,2.2558573958642127,1.6896821153763752
6.044217919,-0.9912182398844086,2.2038008850293336,1.72636606524084
6.048972711,-0.8528860771278864,2.125147458784947,1.763637574587396
6.053727503,-0.6898469465723217,2.0200414546355363,1.801071662560895
6.058482294,-0.5025597928596085,1.8889683981509797,1.838172682485402
6.063237138,-0.2918169255054056,1.7327577362887898,1.8743816353388663
6.06799193,-0.05874665131875884,1.5525806756852805,1.9090846329115942
6.072746721,0.1951885457483228,1.3499429696490077,1.9416223958637533
6.077501513,0.46819846828733996,1.1266725708399066,1.9713006585583355
6.082256305,0.7581764460537278,0.8849021461103359,1.9974013414095095
6.087011148,1.0627154213892132,0.6270465343427001,2.0191943426138876
6.09176594,1.379128874353224,0.3557753157184372,2.03594979422272
6.096520732,1.7044765030385418,0.07398075004072532,2.046950621917579
6.101275523,2.0355944898690983,-0.21525856904712054,2.0515052426248603
6.106030315,2.3691300960757364,-0.5087179093149363,2.04896022806545
6.110785107,2.7015802353715235,-0.8030699251377809,2.0387127541524106
6.11553995,3.029333585545008,-1.0949309126574502,2.020222644524907
6.120294742,3.3487157049816973,-1.3809091207007909,1.9930238007701084
6.125049534,3.656036532368859,-1.6576543769938545,1.9567347932217414
6.129804325,3.9476395654102903,-1.9219082326724135,1.9110683689564325
6.134559117,4.219951942722056,-2.1705537828193817,1.8558396249890696
6.139313961,4.469534597169109,-2.4006642882759652,1.790972602252689
6.144068753,4.693131613159735,-2.609549705918698,1.716505083883825
6.148823544,4.887717907552273,-2.794800232772097,1.6325914282764549
6.153578336,5.050544364246194,-2.9543259855885053,1.539503327365912
6.15833318,5.179179584704895,-3.0863919735789227,1.4376284457916477
6.163087971,5.271547468245861,-3.189647579148885,1.327466959718693
6.167842763,5.325959904799171,-3.2631498405711343,1.2096260699939159
6.172597555,5.341143947459524,-3.306379931745459,1.084812610324118
6.177352346,5.316262931389097,-3.319252357181937,0.9538239070869757
6.18210719,5.250931118098373,-3.3021165238246413,0.8175370751789232
6.186861982,5.14522156781689,-3.2557505127411086,0.6768969573324846
6.191616773,4.9996670749512155,-3.1813470490012374,0.5329029357243207
6.196371565,4.815254139740829,-3.080491851894999,0.386594865440044
6.201126357,4.593410090528644,-2.955134733594035,0.23903839781013522
6.2058812,4.335983612792549,-2.8075539952976074,0.09130997480401547
6.210635992,4.045219079585107,-2.640314838195504,-0.055518218861327094
6.215390784,3.723725208183837,-2.456222654603288,-0.20039306225874992
6.220145575,3.3744386833345423,-2.2582721856542833,-0.3422947904275019
6.224900419,3.000583482577866,-2.0495936213288797,-0.4802505156720991
6.229655211,2.605626709893625,-1.8333967745441406,-0.6133467421689384
6.234410003,2.193231789090116,-1.6129144842393843,-0.7407406620448607
6.239164794,1.7672098889583512,-1.3913463951779033,-0.8616700480706451
6.243919586,1.331470450246399,-1.1718042275050362,-0.975461588082312
6.24867443,0.8899716623742165,-0.957259590097247,-1.0815375391026354
6.253429221,0.44667169797521655,-0.7504953115630076,-1.1794206144606885
6.258184013,0.0054814583681856025,-0.5540611645574202,-1.2687370541600098
6.262938805,-0.4297804844342921,-0.37023474596476214,-1.349217866166985
6.267693648,-0.8554301409473636,-0.20098815056192995,-1.4206982629525136
6.27244844,-1.2679570290970608,-0.047960942026659445,-1.4831153524738026
6.277203232,-1.6640593366136691,0.08756021443901718,-1.5365041750716673
6.281958023,-2.040674978441204,0.20465503614924743,-1.580992207005054
6.286712815,-2.3950082981706053,0.3027761445998811,-1.616792477292039
6.291467659,-2.7245522517170073,0.3817486857401111,-1.644195467040411
6.29622245,-3.027105996624212,0.44176324441181314,-1.6635599793972318
6.300977242,-3.3007878901499166,0.4833623749360434,-1.6753031834279979
6.305732034,-3.544043972752632,0.5074211854993091,-1.679890046418114
6.310486878,-3.755652080253156,0.5151225166126512,-1.6778223760642026
6.315241669,-3.9347217875498535,0.5079273415901144,-1.669627696655038
6.319996461,-4.080690439222181,0.4875410883087934,-1.6558481815998083
6.324751253,-4.19331556756688,0.4558766355211753,-1.6370298586348664
6.329506096,-4.2726640364387665,0.4150147731633131,-1.613712293948797
6.334260888,-4.31909827948952,0.3671629343252263,-1.5864189476632142
6.33901568,-4.33326002369417,0.31461300712019863,-1.5556483760677968
6.343770471,-4.316051903092034,0.25969901827330033,-1.5218664362705663
6.348525315,-4.268617373243077,0.20475544783086477,-1.485499626985042
6.353280107,-4.192319334063234,0.1520768872719838,-1.44692967540537
6.358034898,-4.088717857805299,0.1038796931259399,-1.4064894547889475
6.36278969,-3.9595474006135682,0.06226621695991265,-1.3644602907501133
6.367544482,-3.8066938511020476,0.029192112601978532,-1.321070686707566
6.372299325,-3.6321717386923593,0.006437135250318439,-1.276496470793208
6.377054117,-3.4381018889636685,-0.004420242623050809,-1.2308623381971016
6.381808909,-3.226689774031248,-0.0020241642496870034,-1.1842447347965857
6.3865637,-3.0002047640483713,0.014741475021227546,-1.136676000452717
6.391318544,-2.7609604424099916,0.046740148429569466,-1.0881496640529809
6.396073336,-2.511296103230783,0.09457405722351293,-1.0386267577626085
6.400828128,-2.253559506301205,0.158579638823085,-0.9880429955616221
6.405582919,-1.9900909231397026,0.23882707061729622,-0.9363166415317735
6.410337711,-1.723208469070457,0.3351235621355828,-0.8833568770245314
6.415092555,-1.4551946814601715,0.4470201833848601,-0.8290724632317794
6.419847346,-1.1882842741565898,0.5738219413081884,-0.7733804871470573
6.424602138,-0.9246529733958213,0.7146007893121336,-0.7162149746933245
6.429356982,-0.6664073214133858,0.8682112361899159,-0.6575351550574509
6.434111773,-0.41557532097592415,1.033308209966661,-0.5973331650950469
6.438866565,-0.1740977871503558,1.2083668285357994,-0.5356409920544505
6.443621357,0.05617972824573004,1.3917037317017253,-0.47253646670906085
6.448376148,0.2735145691999854,1.581499637611141,-0.40814813705838404
6.453130992,0.47627428459030574,1.775822799713649,-0.34265887473525736
6.457885784,0.6629437184200541,1.9726530574486796,-0.27630809174488513
6.462640575,0.8321319668226781,2.169906193867144,-0.20939247373088868
6.467395419,0.9825792650489187,2.365458335416792,-0.1422651671672248
6.472150211,1.1131638425959167,2.5571701522510066,-0.07533339122977345
6.476905003,1.222908757759044,2.742910640815423,-0.009054480061075246
6.481659794,1.3109886950605718,2.9205802933302563,0.056069602910622914
6.486414586,1.3767366811077983,3.0881334804207334,0.11949920068204936
6.49116943,1.419650647263504,3.243599893028026,0.18066523469081464
6.495924221,1.4393997417965447,3.385104907547745,0.2389786649058664
6.500679013,1.4358302705799946,3.510888753776411,0.2938409575748866
6.505433805,1.4089711245051557,3.619324378714044,0.34465535155686666
6.510188648,1.3590385340644076,3.708933910652959,0.3908386902553713
6.51494344,1.2864399774555475,3.77840363737165,0.43183356766219694
6.519698232,1.1917770585843137,3.826597419735497,0.4671205237079073
6.524453023,1.0758471661134847,3.8525684677016114,0.4962300154696526
6.529207867,0.939643724839212,3.8555694098605713,0.5187538870419822
6.533962659,0.7843548566208911,3.8350605906227826,0.5343560633328787
6.53871745,0.6113602800576714,3.790716531562623,0.5427822032221177
6.543472242,0.4222262959859435,3.722430495997106,0.5438680660484689
6.548227086,0.21869872919754063,3.6303170993174754,0.5375463716071812
6.552981878,0.002693724802544624,3.5147129124764196,0.5238519661383337
6.557736669,-0.22371367037978762,3.37617501275758,0.5029251433924296
6.562491461,-0.458303175659508,3.2154774448707846,0.4750130094756965
6.567246305,-0.6987251893647416,3.0336055669381228,0.4404688221752435
6.572001096,-0.9425189014987615,2.831748270480821,0.39974927948695627
6.576755888,-1.1871325179223957,2.6112880813271313,0.35340977745695784
6.58151068,-1.429945464164325,2.3737891693525115,0.3020977030890286
6.586265523,-1.668292393771404,2.1209833187374407,0.2465438727180393
6.591020315,-1.899488784246818,1.8547539364259191,0.1875522688038948
6.595775107,-2.120857863721399,1.5771182041135632,0.12598826760743584
6.60052995,-2.3297585742439293,1.2902075078343336,0.0627655857386933
6.605284742,-2.523614243823774,0.9962463084758353,-0.0011677958315352115
6.610039534,-2.69994161005354,0.6975296457154753,-0.06484444692665271
6.614794325,-2.85637981412337,0.3963994962905359,-0.1272927408582396
6.619549169,-2.9907189660152786,0.09522023456158807,-0.18755223173348345
6.624303961,-3.1009278702728467,-0.20364653160745635,-0.24468883935787794
6.629058753,-3.1851804975828597,-0.4978674541453603,-0.2978095280283519
6.633813544,-3.24188079099292,-0.7851629524643144,-0.34607617649682515
6.638568388,-3.269685407272798,-1.0633324054000297,-0.38871835540748884
6.64332318,-3.2675240138367996,-1.330278686536356,-0.42504475591359353
6.648077971,-3.234616789547225,-1.5840316966261534,-0.4544530488071349
6.652832763,-3.1704888128436064,-1.8227705471646631,-0.4764379960413031
6.657587607,-3.0749810617373705,-2.044844055604852,-0.4905976833615112
6.662342398,-2.9482577959711835,-2.2487892255036637,-0.4966377907863614
6.66709719,-2.790810141242429,-2.433347404382867,-0.49437386491052665
6.671851982,-2.603455748779737,-2.5974778387256903,-0.48373160384279923
6.676606825,-2.387334461233842,-2.7403683798654472,-0.4647452144037701
6.681361617,-2.1438999779047903,-2.861443136990459,-0.43755395344360776
6.686116409,-1.8749075773525272,-2.960366923980092,-0.4023970179388895
6.690871253,-1.582398020348153,-3.0370464043076044,-0.3596069945634675
6.695626044,-1.268677817463761,-3.0916279009448506,-0.3096021110804699
6.700380836,-0.9362961009873517,-3.1244919036636527,-0.25287754582106664
6.705135628,-0.5880183893692876,-3.1362443716437705,-0.18999604960187177
6.709890471,-0.22679757409348175,-3.1277049920870303,-0.12157812165358084
6.714645263,0.14425750592231695,-3.0998926130625706,-0.04829196290426822
6.719400055,0.5219155082210952,-3.054008119165636,0.02915658948556082
6.724154898,0.9028576316220421,-2.991415060669454,0.11003396073848425
6.72890969,1.2837138269455184,-2.913618380252855,0.19358840127967245
6.733664482,1.661099726135439,-2.8222416060524664,0.27905906067502095
6.738419273,2.0316538345001636,-2.719002895900303,0.3656844361669116
6.743174117,2.3920745275896262,-2.6056903255204547,0.45271007801557805
6.747928909,2.7391563957318277,-2.484136813678666,0.5393954557321486
6.7526837,3.0698254858200427,-2.3561950704532837,0.6250199146393453
6.757438492,3.38117300193439,-2.223712941705313,0.7088876807157691
6.762193336,3.6704870439973205,-2.088509504330894,0.7903319026116302
6.766948128,3.9352819868701254,-1.9523522438208263,0.8687177520468633
6.771702919,4.173325130855493,-1.816935618742515,0.9434446363722686
6.776457711,4.382660288116329,-1.6838612865522316,1.0139476086548458
6.781212555,4.561628007689257,-1.5546202320841995,1.0796980898360704
6.785967346,4.708882184299178,-1.4305770045803023,1.1402040426384823
6.790722138,4.823402842926232,-1.3129562317179886,1.1950097560778732
6.795476982,4.904504941911768,-1.202831540366123,1.243695410883281
6.800231773,4.95184309201033,-1.1011169744544873,1.2858765986269483
6.804986565,4.9654121465364645,-1.0085609611321251,1.3212039606904928
6.809741409,4.945543677531674,-0.9257428380092436,1.3493630980352034
6.8144962,4.892898413264337,-0.8530719173007256,1.370074880170833
6.819250992,4.808454771794524,-0.7907890275460733,1.383096252592106
6.824005784,4.693493682223617,-0.7389704405436128,1.3882216069174436
6.828760628,4.54957993816725,-0.6975340603071383,1.385284737974073
6.833515419,4.378540375689138,-0.6662477221707266,1.3741613688904513
6.838270211,4.182439209400411,-0.6447394234594666,1.3547721814609486
6.843025055,3.963550894930119,-0.6325092822183931,1.3270862476264966
6.847779846,3.724330913069301,-0.6289429972743422,1.2911247217593378
6.852534638,3.4673848904165774,-0.6333265615606263,1.2469646249611297
6.85728943,3.1954364833648676,-0.6448619616100265,1.1947425334820192
6.862044273,2.9112944570203565,-0.6626835801166848,1.1346579745201293
6.866799065,2.6178193885776637,-0.6858750063616762,1.0669763340725085
6.871553857,2.3178904163789604,-0.7134859520429603,0.9920310922951486
6.876308648,2.014372442035002,-0.7445489685242399,0.9102252202772527
6.881063492,1.7100841743308337,-0.7780956663503867,0.8220315959857014
6.885818284,1.4077673810176257,-0.813172149330243,0.7279923240874921
6.890573075,1.110057688884713,-0.8488533934491054,0.6287168725454318
6.895327919,0.8194572445086522,-0.8842563249953368,0.5248789671256646
6.900082711,0.5383095184010466,-0.9185513821393605,0.417212212746116
6.904837503,0.2687765043218247,-0.950972379304864,0.3065044379061674
6.909592346,0.012818533493859932,-0.9808245333769392,0.19359078548693237
6.914347138,-0.22782310959226895,-1.0074905541857142,0.07934560026847375
6.91910193,-0.45164061717973775,-1.0304347475860212,-0.03532680924540447
6.923856721,-0.6573710166073924,-1.0492051264176492,-0.14950242971403152
6.928611565,-0.8440043758169334,-1.0634335712058867,-0.26224869038447113
6.933366357,-1.0107888120616473,-1.0728341272511484,-0.37263634049945515
6.938121148,-1.157232298146138,-1.0771995664983165,-0.4797518733064081
6.942875992,-1.2831012997373616,-1.07639638011574,-0.5827102906443525
6.947630784,-1.3884163172601478,-1.0703583999660895,-0.6806679819861257
6.952385575,-1.473444446195415,-1.0590792731863605,-0.7728354743913276
6.957140367,-1.538689109426574,-1.0426040333362894,-0.858489795249201
6.961895211,-1.5848771534654669,-1.0210200239330405,-0.9369861783153427
6.966650003,-1.6129435356451067,-0.9944474359688174,-1.0077688358410455
6.971404794,-1.6240138605725263,-0.9630297206707239,-1.0703805160653412
6.976159638,-1.6193850504655238,-0.9269241327485345,-1.1244705668960866
6.98091443,-1.6005044547392813,-0.8862926480436916,-1.1698012358740213
6.985669221,-1.5689477184861378,-0.8412934831540322,-1.206251959271329
6.990424065,-1.5263957364414547,-0.7920734236329765,-1.233821436566885
6.995178857,-1.4746110185282084,-0.7387611422883249,-1.252627352803909
6.999933648,-1.4154137861317269,-0.6814616606654285,-1.2629036932007032
7.00468844,-1.3506581063702296,-0.6202520758415162,-1.2649956786217609
7.009443284,-1.2822083558290274,-0.555178642083342,-1.2593524260171436
7.014198075,-1.2119162859511772,-0.4862552636602271,-1.2465174998779642
7.018952867,-1.1415989399123752,-0.4134634220915482,-1.2271175691755303
7.023707711,-1.0730176459952474,-0.336753529218739,-1.2018494212326787
7.028462503,-1.0078582858980063,-0.25604766748635344,-1.1714656120835463
7.033217294,-0.9477130085032138,-0.17124365129355637,-1.1367590545570279
7.037972138,-0.8940635305907697,-0.08222031865640483,-1.0985468623873433
7.04272693,-0.8482661359689195,0.01115605907852889,-1.0576537818096075
7.047481721,-0.811538453846125,0.10902438011275088,-1.014895550844726
7.052236513,-0.7849480665383097,0.21152047377174107,-0.9710625296562879
7.056991357,-0.7694029665768453,0.31876817971025245,-0.9269039418754526
7.061746148,-0.7656438548654588,0.4308699142004168,-0.8831130559928279
7.06650094,-0.774238245656241,0.5478969015199154,-0.8403136175563025
7.071255784,-0.7955763216150757,0.6698792553484093,-0.7990478169556747
7.076010575,-0.8298684638260353,0.7967961004098215,-0.759766044213729
7.080765367,-0.8771443677554316,0.9285659282899541,-0.7228186420626125
7.085520159,-0.937253647238134,1.065037383218319,-0.6884498228960048
7.090275003,-1.0098678245477393,1.2059806733711935,-0.656793865753892
7.095029794,-1.0944836055706286,1.3510798006444222,-0.6278736584000003
7.099784586,-1.1904273449685525,1.499925796598419,-0.6016015987729185
7.10453943,-1.2968606167570516,1.6520111441952299,-0.5777828212309416
7.109294221,-1.4127868203852039,1.8067255539096636,-0.556120667183108
7.114049013,-1.5370587702043432,1.9633532487951013,-0.536224277563532
7.118803857,-1.6683872358146876,2.1210718962392017,-0.5176181464703203
7.123558648,-1.805350420581706,2.278953304672613,-0.4997534412847328
7.12831344,-1.9464043839549805,2.4359659816738244,-0.48202086488787554
7.133068284,-2.0898944285882832,2.59097962607142,-0.4637648105790487
7.137823075,-2.234067484459521,2.7427716011109293,-0.4442985404956606
7.142577867,-2.377085528402738,2.8900354087741675,-0.4229201041680397
7.147332711,-2.517040078164652,3.0313911570358614,-0.39892870541115755
7.152087503,-2.6519677949486775,3.165397982268205,-0.37164122273348704
7.156842294,-2.779867217241529,3.2905683582353498,-0.3404085901446823
7.161597086,-2.8987166315804784,3.4053841913109864,-0.3046317508318893
7.16635193,-3.0064930631123796,3.508314568946139,-0.263776904955606
7.171106721,-3.101192340848257,3.5978349953307216,-0.2173897844385922
7.175861513,-3.1808501601588968,3.6724479150046077,-0.16510870207211958
7.180616357,-3.2435640291994923,3.7307042922985683,-0.10667613973867959
7.185371148,-3.287515947679681,3.7712259823877057,-0.04194866131100892
7.19012594,-3.3109956269538956,3.792728598929629,0.029095039963455353
7.194880784,-3.3124240211605596,3.794044554283613,0.10634812198955
7.199635575,-3.290376901491602,3.774145921773757,0.18957173344478306
7.204390367,-3.2436081709864073,3.7321667460824566,0.2783934093740542
7.209145211,-3.171072586783779,3.6674244084736785,0.3723077828593409
7.213900003,-3.071947531674334,3.5794396390748306,0.4706796344945282
7.218654794,-2.9456534580667566,3.4679547598694906,0.5727492624661416
7.223409586,-2.7918726159395897,3.3329497403553208,0.6776401174902338
7.22816443,-2.6105656726161395,3.1746556539573314,0.7843686093601911
7.232919221,-2.401985836626741,2.993565138174337,0.8918559558517142
7.237674013,-2.166690110563695,2.7904394859270782,0.9989419105819656
7.242428857,-1.9055473184959224,2.566312030324489,1.1044001746451235
7.247183648,-1.6197425818709947,2.3224875303391785,1.2069552681591793
7.25193844,-1.310777953575856,2.0605373204577138,1.3053006130310245
7.256693284,-0.9804689627479612,1.7822900525435705,1.39811755789006
7.261448075,-0.630936872942177,1.4898179318186744,1.4840950605642986
7.266202867,-0.26459651329935213,1.1854184296016388,1.5619497326738572
7.270957711,0.11586039374661063,0.8715915415667389,1.63044594460768
7.275712503,0.5074864142663088,0.5510127500339979,1.6884156867559241
7.280467294,0.9071040236779309,0.22650194041792074,1.7347778835449266
7.285222138,1.3113355142026366,-0.09901138623052028,1.768556859564461
7.28997693,1.716636949934407,-0.42252617230604067,1.7888996610030223
7.294731721,2.119335840674778,-0.7410106148510486,1.7950919403429078
7.299486565,2.5156721144854894,-1.051445126960744,1.7865721183990577
7.304241357,2.9018418792138205,-1.35086677151549,1.7629435471164312
7.308996148,3.274043378884897,-1.6364144214493108,1.7239844118078036
7.31375094,3.6285244762934044,-1.9053738425573632,1.6696551355465707
7.318505784,3.9616309326578625,-2.155221848313524,1.6001030832523817
7.323260575,4.269854712114877,-2.3836686436748944,1.5156644093257292
7.328015367,4.549881514815951,-2.588697458996886,1.4168629496219196
7.332770211,4.798636737312725,-2.76860057853552,1.3044061234734179
7.337525003,5.013329071169766,-2.9220108928787876,1.1791778801819797
7.342279794,5.191490978119453,-3.047928152916411,1.0422287919853963
7.347034638,5.331015320777371,-3.1457391759370967,0.8947634575174717
