Time (s),Acceleration x (m/s^2),Acceleration y (m/s^2),Acceleration z (m/s^2)
6.00128719,0.0019907629486650043,-0.03331764025435991,-0.03173529793855768
6.00628719,0.020691516053238573,-0.021549694926684473,-0.03568505020236975
6.01128719,0.03838179082207643,-0.01003598886883688,-0.03921839718597551
6.01628719,0.0541532780215261,0.0008681943361969179,-0.04207620186186278
6.02128719,0.06723141913338374,0.010849882342673261,-0.04404482409757506
6.026287156,0.0770292151939757,0.019658182701900374,-0.044976835974817754
6.031287156,0.08318604984056026,0.027118479201490783,-0.044811274607104774
6.036287156,0.08558912041051096,0.03313930882875919,-0.0435897689036709
6.041287189,0.08437655004890902,0.03771063176365469,-0.041464171833397595
6.046287222,0.07992231899853731,0.0408931454681528,-0.03869218540874441
6.051287222,0.07280387617949241,0.04279970205896941,-0.03561956296697217
6.056287188,0.06375411583399529,0.0435714994658664,-0.03265001772931772
6.061287154,0.05360078493874696,0.04335298215278168,-0.030206108713010535
6.066287154,0.04319826774103607,0.04226981382838292,-0.028685557240477166
6.071287154,0.03335837142937151,0.04041377845317816,-0.02841764741376073
6.076287187,0.024787322638132343,0.03783726540719802,-0.029624019078670853
6.081287187,0.01803521817766628,0.034558446410632014,-0.03238773737014859
6.086287187,0.013461915739853308,0.030576685573411307,-0.03663412102306989
6.091287187,0.011220636068831414,0.025896281381064597,-0.04212615535183973
6.096287187,0.011258335588986512,0.02055519927860464,-0.0484760627114226
6.101287187,0.013330777289418448,0.014653954104109624,-0.05517272969899048
6.106287153,0.01703010158905749,0.008378578638439781,-0.061622634640855614
6.111287153,0.021822956818540153,0.002011282457340252,-0.06720031927134333
6.116287153,0.027097185353042175,-0.004076482792072529,-0.0713037013014686
6.121287186,0.03221440862017934,-0.00945107959667775,-0.0734095606755642
6.126287186,0.0365649443868899,-0.013662407389082084,-0.07312492833447554
6.131287186,0.039620891297875986,-0.01630264623754062,-0.07023037251983015
6.136287152,0.04098320051301275,-0.017069118269846906,-0.06471109933185837
6.141287118,0.04041895412077379,-0.015820816308027223,-0.05677167875000566
6.146287084,0.037885587306590515,-0.012618609525672316,-0.04683079342582024
6.151287084,0.03353929840022221,-0.007741443256857353,-0.03549423007340331
6.156287117,0.02772549381759841,-0.0016743934895270588,-0.023507245423262123
6.16128715,0.02095014513945254,0.004931589492505054,-0.011690623409466416
6.166287183,0.013832792742455554,0.011324583778971664,-0.000867187208585589
6.171287216,0.00704464672690123,0.01673416228052861,0.008213414667605395
6.176287216,0.0012381904730168333,0.020461624690897767,0.014944152500037094
6.181287182,-0.003023103163940921,0.021966651161871523,0.018917930756038127
6.186287148,-0.005325690561861978,0.02093906428878675,0.01996771635825903
6.191287148,-0.005449479382182261,0.017346082828497686,0.01818560305805886
6.196287148,-0.003388673807783698,0.011448529655049527,0.013918177875896874
6.201287181,0.0006519268423129933,0.0037833183155887317,0.00773727156045087
6.206287181,0.0062839336897199975,-0.004886505226156646,0.0003876242502330462
6.211287181,0.012982120958928398,-0.013649332087965984,-0.0072840636570475105
6.216287147,0.020145748936936304,-0.021542361011041636,-0.01441154782311021
6.221287113,0.027167969826589086,-0.027658575594403764,-0.02019417187321299
6.226287079,0.03350562366857059,-0.03125137414994373,-0.023975804188951386
6.231287079,0.03874090217639367,-0.03182403975949671,-0.025309734803589536
6.236287112,0.04262656280939589,-0.029191881641545035,-0.024003402368494443
6.241287145,0.045108172492088705,-0.023507604105984067,-0.02013867613370777
6.246287178,0.04632018459165874,-0.015245279041319958,-0.01406530294853185
6.251287178,0.046556751609856395,-0.005144467083301071,-0.006367309585743924
6.256287178,0.046222033462010474,0.005877705287358556,0.0021951053972887433
6.261287144,0.04576757899672021,0.01683374780825711,0.0107624842316305
6.266287144,0.045625811889437616,0.02677698818689424,0.018463185958171063
6.271286244,0.046148856825831475,0.03490174336021466,0.02450023473781219
6.276285377,0.047561128093306794,0.04062027350386164,0.02822771609054608
6.281284477,0.04993227468307268,0.04360871823723326,0.029208624385443235
6.286283577,0.05317410116254898,0.043819257262516016,0.027249408695715013
6.291283577,0.057061136345701806,0.041460509331008165,0.02240989690798296
6.29628291,0.06127031710885817,0.036952037368318494,0.014989929496441439
6.30128251,0.06543183977171683,0.030861429256383258,0.005495683021976134
6.306282476,0.06918156659923504,0.02383358632636359,-0.0054103469746847824
6.311282442,0.07220592817704373,0.016521469401601502,-0.016970881703387074
6.316282442,0.07427278266388715,0.009525798165524277,-0.028401114034042718
6.321282442,0.07524529218022101,0.0033486274071336903,-0.03895504662373583
6.326282475,0.07507940215355285,-0.0016369419931760226,-0.04798420172723058
6.331281575,0.07380805169123972,-0.0052008179623725765,-0.0549830786041292
6.336281508,0.07151651986445379,-0.007255055252841087,-0.05961779132060879
6.341280808,0.06831368375930652,-0.007840304100775644,-0.06173673481569175
6.346280774,0.06430403207884902,-0.007102597771622048,-0.061364279314078216
6.35128074,0.05956532903820272,-0.005264228420856491,-0.058680035663341484
6.35628074,0.054136549545854284,-0.00259276339233209,-0.053987192000906084
6.361280773,0.04801946719365916,0.0006280508579560384,-0.04767403612082057
6.366280806,0.04119468509789797,0.004122545625150688,-0.04017317864370989
6.371280839,0.033649305557809345,0.007640787326316976,-0.0319230448610065
6.376280839,0.025409962488319178,0.010969391783198928,-0.02333564699514201
6.381280839,0.016572974881482204,0.013936694097541122,-0.014773339378092684
6.386280805,0.00732376081476437,0.016414219925836825,-0.006535372812586955
6.391280805,-0.0020598159678986436,0.018316180981310104,0.0011468324709473605
6.396280805,-0.011221836919602973,0.01959782805579129,0.008107946070539744
6.401280838,-0.019758536942464298,0.020252558294441777,0.014242776116799144
6.406280838,-0.02725969302754223,0.020307248065309647,0.019497420629384896
6.411280838,-0.0333549619447695,0.019815543012626804,0.023857706552267346
6.416280804,-0.037758321813115,0.018849499855136453,0.027334650217628098
6.42128167,-0.04030395450517957,0.017490611002357746,0.02994735409132587
6.426282536,-0.04096790661618737,0.01582159025116764,0.03170531268137041
6.431283436,-0.03987182067182357,0.01392025936127231,0.03259364190704088
6.436284336,-0.03726791065537939,0.0118564700388973,0.03256526539788924
6.441284369,-0.03350778360965626,0.009692396394757174,0.03154312996078148
6.446285069,-0.029000829105171745,0.007485939491186084,0.029433419008610795
6.451285502,-0.02416958435139036,0.005296413552792933,0.0261483100142422
6.456285502,-0.019409039685680435,0.0031910547136888754,0.02163486108197473
6.461285502,-0.015054645296533673,0.0012502969153177956,0.01590546983936814
6.466285468,-0.011361032489760194,-0.00043053719645111307,0.009064916264167892
6.471285468,-0.008491382957016024,-0.0017451795073018456,0.001329040395985011
6.476285468,-0.006516496747569794,-0.0025869112614539166,-0.006969370870423718
6.481286401,-0.00542261629116736,-0.002864635317709681,-0.015390647107730793
6.486286467,-0.005127091941214867,-0.0025215056533067176,-0.023415224217619466
6.491287133,-0.005500258263959673,-0.0015518190701527214,-0.030485641996828163
6.496287133,-0.0063904643330177134,-1.1972137063019847e-05,-0.03605868311332963
6.501287133,-0.007647923682606736,0.001977370636039844,-0.03966072239917504
6.506287133,-0.009142859231293484,0.004238807369855108,-0.04093890751998797
6.511287099,-0.010774637328169065,0.006554493490780349,-0.039701995905279105
6.516287099,-0.012470831302095262,0.008688987973720308,-0.035946813096766145
6.521287099,-0.01417763008184005,0.010415821716684433,-0.029868383662891265
6.526287132,-0.01584487595827397,0.01154476172256062,-0.021853137407306357
6.531287132,-0.017409809105259563,0.011946668243850694,-0.012455208252835534
6.536287132,-0.01878338704759666,0.011572784268620042,-0.0023563925200605312
6.541287098,-0.019842259720168384,0.010465417520254263,0.007688369145225349
6.546287064,-0.02042857222507853,0.00875761537678559,0.01691588750424437
6.551287064,-0.020358894076915844,0.006660829284434526,0.024623416982056966
6.556287097,-0.019442424858321865,0.00444151240083335,0.030232933587853658
6.56128713,-0.01750681056485585,0.0023895178301275325,0.033342862887610895
6.56628713,-0.01442763563923363,0.0007825513919805128,0.03376106465786443
6.57128713,-0.010155879746208083,-0.00014845863240799765,0.031516044146881486
6.57628713,-0.004737401732839458,-0.0002484461833656461,0.026846625939428836
6.58128713,0.0016797630027815323,0.0005419066965640947,0.02017280321045988
6.58628713,0.008851446576916326,0.002177723858198017,0.012051981271707502
6.591287096,0.016454857626059027,0.0045136528313200015,0.0031257244530427117
6.596287096,0.024113930717282177,0.007319018004006999,-0.0059372706394414995
6.601287096,0.031428742442848975,0.010302373015564394,-0.01449595348959281
6.606287129,0.03800599925304413,0.013142385726236695,-0.02198379941571338
6.611287129,0.043488342214733904,0.015521400950649553,-0.027943476176338248
6.616287129,0.047580362894078645,0.017157975928564023,-0.03204717045230379
6.621287095,0.050068927010225035,0.01783513851838073,-0.03410297305658063
6.626287095,0.050835330676299015,0.017421894074350578,-0.03404990828121539
6.631287095,0.04985763306798071,0.01588632994269602,-0.03194542226848077
6.636287128,0.04720329153916832,0.01329935789799139,-0.027949110635471428
6.641287128,0.043014324784422006,0.009828724116971362,-0.022305414155122986
6.646287128,0.037488724083113135,0.005723538586762539,-0.01532664564126755
6.651287128,0.030862069478910615,0.001290368364637679,-0.007376697990972123
6.656287128,0.02339221834225595,-0.003136980329514775,0.0011446575473140045
6.661287128,0.01534811810349922,-0.007230604529749369,0.009817064968862121
6.666287094,0.007002233525551849,-0.010700286876682334,0.018214770457160006
6.67128706,-0.0013745763753616638,-0.013319747773662922,0.02592232733752421
6.67628706,-0.00951679833652657,-0.01494445159875592,0.032551718519925964
6.681287093,-0.017167434934124957,-0.015519929207055323,0.03776152561570297
6.686287126,-0.024081378601808517,-0.015081322732829708,0.04127772818014717
6.691287126,-0.03002989691412752,-0.013745880968673676,0.04291424188292971
6.696287126,-0.034807182106631106,-0.011700249874193856,0.042590131708554683
6.701287092,-0.03823956103254968,-0.0091838838531842,0.040340232685769965
6.706287058,-0.04019706748118384,-0.0064692760020355075,0.036316910050304824
6.711287024,-0.04060594075211369,-0.0038394152118814777,0.03078250344146144
6.716287024,-0.03945984429424847,-0.0015631071815173534,0.024093726845765582
6.721287057,-0.036827679953977024,0.00013052615757558762,0.016680083047915878
6.72628709,-0.03285678009036982,0.0010762177611995986,0.009018034365463301
6.731287123,-0.027771395675659886,0.0011926477454466675,0.0016018792902699303
6.736287123,-0.02186695305690792,0.0004956158615638501,-0.005088100317030687
6.741287123,-0.015500114399905706,-0.0008981263172291578,-0.010619163430270475
6.746287089,-0.009073625975518907,-0.0027780281421284393,-0.014639120641959479
6.751287089,-0.00301423748792077,-0.004858512433864658,-0.016905630064757267
6.756287089,0.0022574670115606582,-0.0068087205273991685,-0.017308328809252246
6.761287122,0.006364410994960637,-0.008290924050232674,-0.015880983357601533
6.766287122,0.009013660071164442,-0.009003398953477227,-0.012801974078485613
6.771287122,0.010033923739889252,-0.008721965598544821,-0.008382570629671458
6.776287088,0.009402671644680019,-0.0073338163139691544,-0.003043335740037694
6.781287054,0.007256977663136373,-0.004858053330769301,0.0027202989279328216
6.78628702,0.0038851929693551747,-0.0014493472744065762,0.008381348264653856
6.79128702,-0.0002999637698848709,0.0026162792883166674,0.013430164242565799
6.79628702,-0.0048033961841559255,0.006971931013855069,0.017423873409329074
6.801286386,-0.009099468733059966,0.011202772044486695,0.020030001620658607
6.806285519,-0.012687849379964857,0.01489606014998861,0.02105789578398442
6.811285552,-0.015147442912429325,0.017692113374846708,0.02047331608783233
6.816285552,-0.016182519544404177,0.019329879243050685,0.018394717900333073
6.821285552,-0.015655362872733117,0.0196811969144248,0.015073106386990937
6.826285518,-0.013600741952812984,0.018768845053401956,0.010859744137910238
6.831285518,-0.010219719592407089,0.016765134193616645,0.006166887507839988
6.836285484,-0.005853562228006893,0.013970175124311675,0.0014263558959376646
6.841285517,-0.0009418399058682332,0.010771802594341939,-0.00295022864120984
6.846285517,0.004029018267708723,0.007591908209599991,-0.006606598817368082
6.851285517,0.008579969337072496,0.004826108639983384,-0.009270010804820044
6.856285517,0.012290466518748192,0.002785000022639461,-0.010770398071874217
6.861285517,0.014841772734144379,0.0016456358601298433,-0.011049074055779802
6.866285517,0.01604892664916603,0.0014212267679681438,-0.010156635523339006
6.871285483,0.015878527938503695,0.001955356587145754,-0.00824116257915852
6.876285483,0.014450113976546759,0.002944206150649836,-0.005529085144069038
6.881285483,0.012020031025200278,0.0039863041118090355,-0.002301595726211146
6.886285516,0.008948732401955085,0.004654378548216759,0.0011309436816413373
6.891285516,0.005655013867923125,0.004578751218372015,0.004455054893785736
6.896285516,0.0025629962698784643,0.0035276726794272973,0.007379720176831849
6.901285482,4.892729447183926e-05,0.0014684348650328553,0.009660439655314804
6.906285482,-0.0016052412517924353,-0.0014049074643687632,0.011120094319512731
6.911285482,-0.002245795696195233,-0.0046856928241350085,0.011664344263539137
6.916285515,-0.0018647485292568305,-0.007811022984411226,0.011289295482536328
6.921284881,-0.0005986278844658844,-0.010152181957787351,0.010080013520293113
6.926284214,0.0012918460531996332,-0.011124104983961857,0.008199891639920603
6.931284214,0.00345932710226372,-0.010295013466156765,0.005872301707424742
6.936284214,0.005520034608981149,-0.007476888743922226,0.0033568863053948807
6.941284214,0.007109274624579069,-0.0027803206657710977,0.000923199805781913
6.946284214,0.007933248983147055,0.0033771574398935374,-0.0011756186348050653
6.951284847,0.007808169830676442,0.010312728158927451,-0.002726582187659855
6.956285747,0.006680002235555032,0.017165248175665792,-0.003575535415632765
6.961285747,0.004622302946306452,0.023015088375816183,-0.003638503763364084
6.96628578,0.0018143409392295615,0.02701849534154254,-0.002904074453006379
6.97128578,-0.0014946031685233788,0.02853517276834409,-0.001426413116422941
6.97628578,-0.00502723385151886,0.027228628848669934,0.000689835181131811
6.981285746,-0.008519468844732784,0.023123419313177934,0.003309945395569343
6.986285746,-0.011755401503252513,0.01661070710727646,0.006291001522174755
6.991285712,-0.014592059624293567,0.008401934931852982,0.009501347616333476
6.996285712,-0.016971228490387867,-0.0005617543846736018,0.012834412497138738
7.001285745,-0.018916878170919523,-0.009230690454877337,0.016214946658735768
7.006285778,-0.020518539419763168,-0.016581349033934233,0.019596950232927922
7.011285811,-0.021903310192689065,-0.02174667280225421,0.0229536022642286
7.016285811,-0.023201539299861792,-0.024125565796890593,0.026260485275261893
7.021285811,-0.02451278822372082,-0.02345804442541582,0.029474616288986958
7.026285777,-0.02587868267285107,-0.019856822187730563,0.03251322907278678
7.031285777,-0.027267646762790473,-0.013791528845519544,0.03523740424335422
7.036285777,-0.028573918331919423,-0.006027767050956633,0.03744576496808821
7.04128581,-0.02963057724560788,0.002470996216320991,0.03888205838987207
7.046285543,-0.030234219447993437,0.010665891549500709,0.03925770573323397
7.051285543,-0.030177569553998484,0.01757348203725626,0.0382871223111749
7.056285509,-0.02928555129045521,0.022387914284790568,0.03573077422495219
7.061285475,-0.027449828687505347,0.024578465865390225,0.031439321353354394
7.066285441,-0.02465655156981412,0.02394980608433463,0.02539206813616094
7.071286074,-0.02100229291755611,0.02065733603930192,0.017723983705428412
7.07628674,-0.016694350468385747,0.015176255115112572,0.00873711385017197
7.081286773,-0.012033890975600934,0.008229591939763721,-0.0011061851082235824
7.086286806,-0.007383590619409544,0.000686253613423274,-0.011209161184624252
7.091286839,-0.003124644599919624,-0.006555808812503437,-0.02088487963279157
7.096286839,0.0003898234545094093,-0.012684614827578706,-0.02941561149696454
7.101286839,0.002877513264806469,-0.017071635455271007,-0.036121680212401586
7.106286805,0.004159616705098622,-0.019339317219439545,-0.04043182085761438
7.111286805,0.00417926517373406,-0.019391243196314464,-0.04194617200633235
7.116286805,0.003003935628839859,-0.017403432869031652,-0.04048384720330085
7.121286838,0.0008121503525384391,-0.013781004335605087,-0.03610930338693013
7.126286838,-0.0021331993229747256,-0.009088969224823985,-0.029134626210059016
7.131286838,-0.005520629328632662,-0.003968697065779344,-0.02009760537604608
7.136286838,-0.009029020280660133,0.0009476576454743327,-0.009717685635201366
7.141286838,-0.012363191363203825,0.005113603811256008,0.001166380015141223
7.146286838,-0.015280469564598909,0.008126977664176598,0.011671787749835962
7.151286804,-0.017605093795724086,0.00976535539874787,0.020952955940418565
7.156286804,-0.019230484736725506,0.009996167327811065,0.02828071024853852
7.161286804,-0.020112186628017174,0.008962818073536919,0.03311086061592734
7.166286837,-0.020255668555025707,0.006950948498600942,0.03513445516866188
7.17128687,-0.019702863797752098,0.004340772835277617,0.034304108774044134
7.17628687,-0.018519864523180666,0.0015520739915369866,0.030833837233571366
7.181286836,-0.01678659410228803,-0.0010116879824246456,0.025173066240445106
7.186286802,-0.014588440971940113,-0.0030141441084292533,0.01795825530812179
7.191286802,-0.012009996571674158,-0.004226216178080385,0.009947573906917029
7.196287102,-0.00913165697245026,-0.004551140210380993,0.0019453733025053743
7.201287135,-0.0060300343635355455,-0.004031182085652218,-0.005275980952875577
7.206287135,-0.0027823578489416826,-0.0028352215622780433,-0.011048996571202492
7.211287135,0.0005264429571048407,-0.0012291841355581332,-0.014871106689599718
7.216287135,0.0037967306011994794,0.0004661097431842878,-0.016445733943014823
7.221287135,0.006910612004372869,0.0019233420948024825,-0.015700709507556216
7.226287135,0.009734504165565348,0.0028563807910689815,-0.01278353432495768
7.231287101,0.012128446144546402,0.0030608691574835786,-0.008035935091716987
7.236287101,0.013960378262019138,0.002442896961428818,-0.0019521879614754923
7.241287101,0.01512208140251607,0.0010329692368402205,0.004873510147802452
7.246287134,0.015543444617273113,-0.0010154989182184003,0.011805404402582662
7.251287134,0.015202765345846315,-0.0034423220260520948,0.018225327174032753
7.256287134,0.014131973861275154,-0.005909391694148121,0.023587696085289312
7.2612871,0.012416394134328785,-0.008039534199010967,0.02746534321317498
7.2662871,0.01018889006380568,-0.009461872482306505,0.029581513834501395
7.271286433,0.007618474817590845,-0.009859259593080807,0.029824702560340297
7.276285566,0.004894184810993429,-0.00901258646656304,0.028245353721409672
7.281284666,0.002206174098623026,-0.006836494294849636,0.025036343192366813
7.286283766,-0.00027313238775042014,-0.003401423882503114,0.020501692360191157
7.291282866,-0.0024050519160382622,0.00106188415723035,0.01501927030328662
7.296282866,-0.004096059981571715,0.006177379495924551,0.009002971639354845
7.301282199,-0.0053041826036246235,0.0114576730291782,0.0028684181521303246
7.306282165,-0.006040860490965851,0.016353915437284046,-0.002995538303203852
7.311281465,-0.006368886011066981,0.020316180333272343,-0.008248631829439006
