Time (s),Acceleration x (m/s^2),Acceleration y (m/s^2),Acceleration z (m/s^2)
3.001178317,2.118868589,-9.1916399,2.731784105
3.006178317,2.111685991,-9.189245224,2.681505919
3.011178317,2.099714994,-9.184456825,2.628833532
3.016178317,2.085349798,-9.172486305,2.583343744
3.021178317,2.068590164,-9.146149635,2.540247917
3.026178283,2.035071373,-9.098265648,2.516305923
3.031178283,1.965639591,-9.040804863,2.513911724
3.036178283,1.89620769,-8.985737801,2.525882721
3.041178316,1.831564307,-8.952219009,2.535459518
3.046178349,1.778891921,-8.945036888,2.559401512
3.051178349,1.723825216,-8.966584206,2.607285738
3.056178315,1.656787634,-9.002497673,2.67432332
3.061178281,1.59693253,-9.03841114,2.7533319
3.066178247,1.570596337,-9.07671833,2.808398485
3.071178213,1.546654344,-9.098265648,2.86107111
3.076178213,1.517923832,-9.11502552,2.906560898
3.081178246,1.496376038,-9.129390717,2.959233284
3.086178279,1.493981838,-9.148544312,2.999934673
3.091178312,1.522712231,-9.182063103,3.019088268
3.096178312,1.553836942,-9.217975616,3.031059265
3.101178312,1.580173135,-9.256282806,3.035847664
3.106178278,1.59693253,-9.277831078,3.035847664
3.111178278,1.620874524,-9.282619476,3.021482468
3.116178278,1.632845521,-9.2802248,2.997540474
3.121178311,1.63763392,-9.273042679,2.964021683
3.126178311,1.63763392,-9.256282806,2.916137695
3.131178311,1.63763392,-9.237129211,2.85867691
3.136178277,1.632845521,-9.215581894,2.810792685
3.141178243,1.618480325,-9.189245224,2.774879694
3.146178209,1.589749932,-9.160514832,2.762908697
3.151178209,1.546654344,-9.143755913,2.777273893
3.156178242,1.501164436,-9.141361237,2.813186884
3.161178275,1.44849205,-9.150938034,2.863465309
3.166178308,1.393425345,-9.170091629,2.908955097
3.171178341,1.319205165,-9.201216698,2.942473888
3.176178341,1.247379065,-9.222764015,2.944868088
3.181178307,1.18991828,-9.227552414,2.930502892
3.186178273,1.161187768,-9.227552414,2.8993783
3.191178273,1.139639974,-9.232340813,2.875436306
3.196178273,1.158793569,-9.234735489,2.849100113
3.201178306,1.180341482,-9.234735489,2.834734917
3.206178306,1.221042871,-9.244312286,2.825158119
3.211178306,1.26653266,-9.263465881,2.817975283
3.216178306,1.316810966,-9.277831078,2.801215887
3.221178306,1.383848548,-9.292196274,2.765302896
3.226178306,1.45088625,-9.304166794,2.722207308
3.231178272,1.503558636,-9.313743591,2.681505919
3.236178272,1.553836942,-9.323320389,2.63841033
3.241178272,1.611297727,-9.330503464,2.580949545
3.246178305,1.651999116,-9.340080261,2.52827692
3.251178305,1.673547029,-9.340080261,2.477998734
3.256178305,1.680729628,-9.340080261,2.442085743
3.261178271,1.666364431,-9.349657059,2.442085743
3.266177371,1.673547029,-9.361627579,2.425326347
3.271176471,1.666364431,-9.368810654,2.446874142
3.276175604,1.640028119,-9.378387451,2.470816135
3.281174937,1.611297727,-9.385569572,2.501940727
3.28617427,1.577778935,-9.387964249,2.547430515
3.29117427,1.529894829,-9.387964249,2.602497339
3.296173603,1.493981838,-9.38317585,2.664746523
3.301173603,1.455674648,-9.378387451,2.736572504
3.306173636,1.441309452,-9.375992775,2.808398485
3.311173602,1.446097851,-9.368810654,2.863465309
3.316173602,1.453280449,-9.354445457,2.901772499
3.321173602,1.472434044,-9.31853199,2.923320293
3.326173568,1.510741234,-9.273042679,2.930502892
3.331173568,1.563413739,-9.232340813,2.918531895
3.336173568,1.616086125,-9.196428299,2.906560898
3.341173534,1.666364431,-9.167697906,2.887407303
3.346173534,1.719036818,-9.15333271,2.85867691
3.351173534,1.769315004,-9.155726433,2.825158119
3.356173567,1.810016513,-9.16530323,2.79163909
3.361173567,1.845929503,-9.194033623,2.7533319
3.366173567,1.886630893,-9.227552414,2.710236311
3.371173567,1.924938202,-9.26825428,2.664746523
3.376282575,1.960851192,-9.301773071,2.619256735
3.381282575,1.980004787,-9.325715065,2.56897831
3.386282541,1.987187386,-9.34486866,2.513911724
3.391282541,1.975216389,-9.340080261,2.449268341
3.396282541,1.956062794,-9.330503464,2.384624958
3.401282574,1.939303398,-9.313743591,2.327163935
3.406282574,1.929726601,-9.292196274,2.276885748
3.411282574,1.929726601,-9.265859604,2.243366957
3.41628344,1.927332401,-9.24191761,2.219424963
3.421284306,1.927332401,-9.220370293,2.221819162
3.426285206,1.929726601,-9.206005096,2.238578558
3.431285906,1.9321208,-9.189245224,2.26730895
3.436286606,1.941697598,-9.186851501,2.310404539
3.441286606,1.951274395,-9.198822021,2.365471363
3.446287272,1.963245392,-9.215581894,2.430114746
3.451287272,1.968033791,-9.251494408,2.504334927
3.456287105,1.97042799,-9.287407875,2.56897831
3.461287105,1.963245392,-9.325715065,2.63841033
3.466287071,1.948880196,-9.35683918,2.700659513
3.471287071,1.9321208,-9.375992775,2.755726099
3.476287137,1.917755604,-9.378387451,2.806004286
3.481286503,1.908178806,-9.364022255,2.844311714
3.486286503,1.89860189,-9.340080261,2.873042107
3.491286503,1.891419291,-9.311349869,2.885013103
3.496286469,1.881842494,-9.287407875,2.889801502
3.501286469,1.874659896,-9.270648003,2.882618904
3.506286469,1.872265697,-9.265859604,2.870647907
3.511286502,1.872265697,-9.275436401,2.856282711
3.516286502,1.877054095,-9.299378395,2.846705914
3.521286502,1.879448295,-9.325715065,2.834734917
3.526286502,1.877054095,-9.347262383,2.82276392
3.531286502,1.869871497,-9.35683918,2.813186884
3.536286502,1.8602947,-9.359233856,2.806004286
3.541286468,1.8602947,-9.35683918,2.794033289
3.546286434,1.862688899,-9.354445457,2.784456491
3.551286434,1.877054095,-9.354445457,2.779668093
3.556286467,1.884236693,-9.354445457,2.774879694
3.5612865,1.881842494,-9.359233856,2.767697096
3.5662865,1.874659896,-9.366415977,2.765302896
3.5712865,1.8602947,-9.373599052,2.762908697
3.576286466,1.850717902,-9.378387451,2.762908697
3.581286432,1.845929503,-9.387964249,2.767697096
3.586286398,1.843535304,-9.397541046,2.779668093
3.591286398,1.841141105,-9.402329445,2.796427488
3.596286431,1.831564307,-9.409511566,2.806004286
3.601286464,1.810016513,-9.416694641,2.808398485
3.606286597,1.778891921,-9.411906242,2.801215887
3.611286597,1.735796213,-9.399934769,2.786850691
3.616286597,1.687912226,-9.380781174,2.772485495
3.621286563,1.642422318,-9.354445457,2.760514498
3.626286563,1.604115129,-9.31853199,2.7533319
3.631287229,1.565807939,-9.273042679,2.736572504
3.636287262,1.539471745,-9.227552414,2.722207308
3.641287262,1.515529633,-9.184456825,2.705447912
3.646287262,1.496376038,-9.146149635,2.688688517
3.651287228,1.498770237,-9.12699604,2.67671752
3.656287194,1.503558636,-9.124602318,2.667140722
3.66128716,1.513135433,-9.138967514,2.667140722
3.66628716,1.520318031,-9.167697906,2.664746523
3.67128716,1.52510643,-9.20361042,2.659958124
3.676287193,1.527500629,-9.246706009,2.657563925
3.681287226,1.527500629,-9.289801598,2.652775526
3.686287259,1.532289028,-9.332897186,2.650381327
3.691287259,1.549048543,-9.373599052,2.652775526
3.696287259,1.563413739,-9.404723167,2.652775526
3.701287225,1.577778935,-9.423876762,2.647987127
3.706287225,1.582567334,-9.431059837,2.63841033
3.711287225,1.584961534,-9.42148304,2.624045134
3.716287258,1.587355733,-9.397541046,2.607285738
3.721287258,1.59932673,-9.375992775,2.595314741
3.726287258,1.616086125,-9.349657059,2.590526342
3.731287258,1.63523972,-9.325715065,2.592920542
3.736287258,1.644816518,-9.30656147,2.595314741
3.741286591,1.647210717,-9.292196274,2.595314741
3.746286557,1.628057122,-9.277831078,2.592920542
3.751286557,1.594538331,-9.270648003,2.592920542
3.756286557,1.55862534,-9.275436401,2.588132143
3.76128659,1.527500629,-9.299378395,2.585737944
3.76628659,1.496376038,-9.330503464,2.588132143
3.77128659,1.474828243,-9.352050781,2.590526342
3.776286556,1.453280449,-9.378387451,2.590526342
3.781286522,1.438915253,-9.392752647,2.585737944
3.786286488,1.426944256,-9.404723167,2.576161146
3.791286488,1.426944256,-9.414299965,2.561795712
3.796286488,1.441309452,-9.423876762,2.547430515
3.801286521,1.460463047,-9.426271439,2.542642117
3.806286554,1.482010841,-9.419088364,2.540247917
3.811286587,1.508347034,-9.407117844,2.545036316
3.816286587,1.539471745,-9.385569572,2.559401512
3.821286587,1.577778935,-9.354445457,2.583343744
3.826286553,1.618480325,-9.320926666,2.624045134
3.831286553,1.666364431,-9.275436401,2.681505919
3.836286553,1.707065821,-9.239523888,2.736572504
3.841286586,1.731007814,-9.20361042,2.782062292
3.846286586,1.728613615,-9.174880028,2.813186884
3.851286586,1.690306425,-9.160514832,2.825158119
3.856286552,1.640028119,-9.158121109,2.829946518
3.861286518,1.587355733,-9.174880028,2.832340717
3.866286484,1.551442742,-9.201216698,2.829946518
3.871286484,1.52510643,-9.22994709,2.832340717
3.876286517,1.508347034,-9.256282806,2.834734917
3.88128655,1.505952835,-9.282619476,2.825158119
3.886286583,1.517923832,-9.299378395,2.808398485
3.891287249,1.537077546,-9.296984673,2.777273893
3.896287249,1.56101954,-9.287407875,2.746149302
3.901287215,1.604115129,-9.282619476,2.71502471
3.906287215,1.654393315,-9.282619476,2.686294317
3.911287215,1.707065821,-9.285013199,2.659958124
3.916287248,1.750161409,-9.285013199,2.628833532
3.921287281,1.778891921,-9.282619476,2.60010314
3.926287281,1.790862918,-9.275436401,2.571372509
3.931287281,1.800439715,-9.261071205,2.545036316
3.936287281,1.807622313,-9.253889084,2.521094322
3.941287281,1.814804912,-9.253889084,2.509123325
3.946287281,1.812410712,-9.246706009,2.501940727
3.951287247,1.793257117,-9.239523888,2.504334927
3.956287247,1.759738207,-9.22994709,2.509123325
3.961287247,1.714248419,-9.217975616,2.518700123
3.96628728,1.661576033,-9.206005096,2.533065319
3.97128728,1.59932673,-9.201216698,2.564189911
3.97628728,1.549048543,-9.20361042,2.60010314
3.981287246,1.498770237,-9.213187218,2.63601613
3.986287246,1.44849205,-9.225158691,2.67432332
3.991287246,1.405396342,-9.239523888,2.710236311
3.996287279,1.371877551,-9.251494408,2.743755102
4.001287279,1.352723956,-9.26825428,2.765302896
4.006287279,1.352723956,-9.277831078,2.782062292
4.011287279,1.379060149,-9.292196274,2.801215887
4.016287279,1.422155857,-9.308955193,2.817975283
4.021287279,1.470039845,-9.316138268,2.829946518
4.026287245,1.517923832,-9.320926666,2.839523315
4.031287245,1.563413739,-9.31853199,2.849100113
4.036287245,1.601720929,-9.30656147,2.863465309
4.041287278,1.63523972,-9.289801598,2.889801502
4.046287311,1.661576033,-9.273042679,2.923320293
4.051287311,1.678335428,-9.253889084,2.956839085
4.056287277,1.678335428,-9.237129211,2.985569477
4.061287243,1.668758631,-9.227552414,3.01429987
4.066286843,1.651999116,-9.220370293,3.038241863
4.071286843,1.628057122,-9.217975616,3.052607059
4.076286209,1.606509328,-9.215581894,3.062183857
4.081286209,1.589749932,-9.220370293,3.066972494
4.086286209,1.575384736,-9.225158691,3.066972494
4.091286209,1.56101954,-9.215581894,3.064578056
4.096286209,1.546654344,-9.201216698,3.052607059
4.101286209,1.539471745,-9.184456825,3.033453465
4.106286175,1.534683347,-9.158121109,3.004723072
4.111286175,1.537077546,-9.131784439,2.966415882
4.116286175,1.544260144,-9.11502552,2.923320293
4.121286208,1.549048543,-9.103054047,2.877830505
4.126286208,1.553836942,-9.086295128,2.832340717
4.131286208,1.553836942,-9.07671833,2.782062292
4.136286174,1.549048543,-9.074323654,2.726995707
4.14128614,1.539471745,-9.079112053,2.67432332
4.146286106,1.52510643,-9.098265648,2.628833532
4.151286106,1.517923832,-9.119813919,2.595314741
4.156286139,1.522712231,-9.148544312,2.580949545
4.161286172,1.532289028,-9.179668427,2.576161146
4.166286205,1.546654344,-9.206005096,2.576161146
4.171286238,1.56101954,-9.222764015,2.580949545
4.176286238,1.575384736,-9.232340813,2.590526342
4.181286204,1.587355733,-9.237129211,2.60010314
4.18628617,1.604115129,-9.244312286,2.609679937
4.19128617,1.618480325,-9.251494408,2.619256735
4.19628617,1.632845521,-9.258677483,2.624045134
4.201286203,1.647210717,-9.261071205,2.621650934
4.206286203,1.654393315,-9.26825428,2.616862535
4.211286203,1.666364431,-9.270648003,2.602497339
4.216286569,1.685518026,-9.273042679,2.580949545
4.221286535,1.70946002,-9.273042679,2.559401512
4.226287168,1.745373011,-9.273042679,2.542642117
4.231287168,1.790862918,-9.275436401,2.525882721
4.236287201,1.838746905,-9.273042679,2.516305923
4.241287234,1.881842494,-9.258677483,2.518700123
4.246287267,1.920149803,-9.239523888,2.52827692
4.251287267,1.948880196,-9.215581894,2.545036316
4.256287267,1.97042799,-9.198822021,2.56897831
4.261287233,1.987187386,-9.186851501,2.597708941
4.266286566,2.001552582,-9.182063103,2.631227732
4.271285666,2.003946781,-9.184456825,2.655169725
4.276284799,2.001552582,-9.186851501,2.67671752
4.281284132,1.994369984,-9.194033623,2.695871115
4.286284132,1.975216389,-9.208398819,2.71263051
4.291284132,1.958456993,-9.237129211,2.729389906
4.296284132,1.946485996,-9.261071205,2.748543501
4.301283865,1.936909199,-9.287407875,2.767697096
4.306283831,1.929726601,-9.311349869,2.782062292
4.311283797,1.917755604,-9.328108788,2.79163909
4.316283497,1.905784607,-9.337685585,2.801215887
4.321282597,1.89620769,-9.337685585,2.808398485
4.326281963,1.869871497,-9.330503464,2.813186884
4.331281963,1.848323703,-9.316138268,2.82276392
4.336281563,1.817199111,-9.299378395,2.837129116
4.341281529,1.78368032,-9.285013199,2.856282711
4.346281529,1.735796213,-9.26825428,2.868253708
4.351281529,1.683123827,-9.251494408,2.880224705
4.356281562,1.620874524,-9.234735489,2.8969841
4.361281562,1.56101954,-9.227552414,2.906560898
4.366281562,1.537077546,-9.227552414,2.930502892
4.371281562,1.517923832,-9.239523888,2.971204281
4.376281562,1.491587639,-9.249100685,2.980781078
4.381281562,1.455674648,-9.26825428,2.916137695
4.386281528,1.422155857,-9.289801598,2.853888512
4.391281528,1.388636947,-9.311349869,2.813186884
4.396281528,1.357512355,-9.330503464,2.798821688
4.401281561,1.331176162,-9.34486866,2.801215887
4.406281561,1.321599364,-9.361627579,2.808398485
4.411281561,1.326387763,-9.361627579,2.817975283
4.416282194,1.331176162,-9.364022255,2.82276392
4.42128306,1.340752959,-9.359233856,2.817975283
4.426283926,1.345541358,-9.354445457,2.808398485
4.431284592,1.352723956,-9.349657059,2.798821688
4.436284592,1.355118155,-9.342473984,2.794033289
4.441284625,1.359906554,-9.337685585,2.794033289
4.446284658,1.359906554,-9.330503464,2.796427488
4.451284958,1.369483352,-9.31853199,2.796427488
4.456284958,1.37427175,-9.304166794,2.796427488
4.461284958,1.37666595,-9.285013199,2.794033289
4.466285224,1.37427175,-9.261071205,2.79163909
4.471286124,1.386242747,-9.244312286,2.784456491
4.47628679,1.398213744,-9.239523888,2.782062292
4.481286823,1.424550056,-9.237129211,2.784456491
4.486287223,1.455674648,-9.234735489,2.784456491
4.491287223,1.491587639,-9.234735489,2.779668093
4.496287189,1.529894829,-9.227552414,2.774879694
4.501287155,1.55862534,-9.217975616,2.767697096
4.506287121,1.589749932,-9.210793495,2.755726099
4.511287121,1.618480325,-9.210793495,2.743755102
4.516287154,1.644816518,-9.208398819,2.729389906
4.521287187,1.666364431,-9.201216698,2.71502471
4.52628722,1.685518026,-9.198822021,2.698265314
4.53128722,1.695094824,-9.1916399,2.686294317
4.53628722,1.702277422,-9.184456825,2.679111719
4.541287186,1.711854219,-9.179668427,2.67671752
4.546287152,1.726219416,-9.172486305,2.679111719
4.551287152,1.735796213,-9.167697906,2.679111719
4.556287185,1.738190413,-9.162909508,2.679111719
4.561287218,1.738190413,-9.167697906,2.669534922
4.566287218,1.733402014,-9.179668427,2.657563925
4.571287218,1.733402014,-9.189245224,2.645592928
4.576287218,1.742978811,-9.20361042,2.640804529
4.581287218,1.757344007,-9.215581894,2.643198729
4.586287218,1.778891921,-9.225158691,2.652775526
4.591287184,1.795651317,-9.22994709,2.655169725
4.596287184,1.798045516,-9.239523888,2.655169725
4.601287017,1.786074519,-9.246706009,2.647987127
4.60628705,1.771709204,-9.249100685,2.63841033
4.61128705,1.754949808,-9.246706009,2.631227732
4.61628705,1.742978811,-9.246706009,2.626439333
4.621287016,1.745373011,-9.246706009,2.631227732
4.626287016,1.752555609,-9.246706009,2.640804529
4.631287016,1.759738207,-9.246706009,2.650381327
4.636287049,1.764526606,-9.251494408,2.657563925
4.641287049,1.769315004,-9.251494408,2.667140722
4.646287049,1.771709204,-9.256282806,2.67432332
4.651287049,1.776497602,-9.258677483,2.681505919
4.656287049,1.786074519,-9.263465881,2.693476915
4.661287049,1.790862918,-9.263465881,2.703053713
4.666287015,1.790862918,-9.261071205,2.710236311
4.671286981,1.78128612,-9.253889084,2.707842112
4.676286981,1.754949808,-9.232340813,2.703053713
4.681287014,1.731007814,-9.215581894,2.691082716
4.686287047,1.704671621,-9.208398819,2.679111719
4.691287047,1.685518026,-9.210793495,2.671929121
4.696287047,1.673547029,-9.215581894,2.669534922
4.701287013,1.663970232,-9.225158691,2.667140722
4.706287013,1.647210717,-9.239523888,2.664746523
4.711287013,1.628057122,-9.253889084,2.652775526
4.716287046,1.611297727,-9.26825428,2.63841033
4.721287046,1.592144132,-9.287407875,2.633621931
4.726287046,1.577778935,-9.308955193,2.63601613
4.731287046,1.575384736,-9.328108788,2.647987127
4.736287046,1.577778935,-9.340080261,2.669534922
4.741287046,1.580173135,-9.34486866,2.698265314
4.746287012,1.587355733,-9.342473984,2.729389906
4.751287178,1.601720929,-9.325715065,2.762908697
4.756287178,1.616086125,-9.311349869,2.796427488
4.761287211,1.632845521,-9.299378395,2.827552319
4.766287211,1.647210717,-9.277831078,2.85867691
4.771287211,1.656787634,-9.253889084,2.882618904
4.776287177,1.654393315,-9.234735489,2.8993783
4.781287143,1.647210717,-9.222764015,2.906560898
4.786287109,1.63523972,-9.213187218,2.901772499
4.791287109,1.630451322,-9.217975616,2.887407303
4.796287109,1.625662923,-9.22994709,2.870647907
4.801287142,1.630451322,-9.244312286,2.849100113
4.806287175,1.642422318,-9.256282806,2.825158119
4.811287208,1.649604917,-9.26825428,2.798821688
4.816287208,1.651999116,-9.277831078,2.772485495
4.821287208,1.656787634,-9.277831078,2.7509377
4.826287174,1.656787634,-9.277831078,2.731784105
4.831287174,1.661576033,-9.285013199,2.717418909
4.836287174,1.663970232,-9.289801598,2.707842112
4.841287207,1.663970232,-9.287407875,2.703053713
4.846287207,1.659181833,-9.282619476,2.703053713
4.851287207,1.644816518,-9.2802248,2.710236311
4.856287173,1.632845521,-9.273042679,2.71502471
4.861287139,1.623268723,-9.263465881,2.724601507
4.866287105,1.616086125,-9.263465881,2.741360903
4.871287105,1.618480325,-9.26825428,2.758120298
4.876287138,1.625662923,-9.273042679,2.767697096
4.881287171,1.630451322,-9.275436401,2.770091295
4.886287204,1.628057122,-9.275436401,2.770091295
4.891287204,1.620874524,-9.261071205,2.762908697
4.896287204,1.613691926,-9.249100685,2.7533319
4.90128717,1.608903527,-9.234735489,2.746149302
4.90628717,1.604115129,-9.220370293,2.741360903
4.91128717,1.59932673,-9.213187218,2.736572504
4.916287203,1.592144132,-9.213187218,2.726995707
4.921287236,1.584961534,-9.217975616,2.71263051
4.926287236,1.580173135,-9.222764015,2.698265314
4.931287236,1.582567334,-9.232340813,2.686294317
4.936287236,1.592144132,-9.244312286,2.67432332
4.941287236,1.608903527,-9.258677483,2.67432332
4.946287236,1.625662923,-9.273042679,2.67432332
4.951287202,1.644816518,-9.282619476,2.67671752
4.956287202,1.659181833,-9.289801598,2.67432332
4.961287202,1.663970232,-9.282619476,2.67671752
4.966287235,1.668758631,-9.270648003,2.683900118
4.971287235,1.678335428,-9.258677483,2.688688517
4.976287235,1.692700624,-9.249100685,2.698265314
4.981287201,1.699883223,-9.237129211,2.71263051
4.986287201,1.695094824,-9.22994709,2.729389906
4.991287201,1.632845521,-9.24191761,2.82276392
4.996287234,1.601720929,-9.237129211,2.839523315
5.001287234,1.556231141,-9.217975616,2.841917515
5.006287234,1.549048543,-9.24191761,2.870647907
5.011287234,1.572990537,-9.265859604,2.880224705
5.016287234,1.580173135,-9.285013199,2.877830505
5.021287234,1.584961534,-9.282619476,2.839523315
5.0262872,1.580173135,-9.285013199,2.808398485
5.0312872,1.589749932,-9.261071205,2.7533319
5.0362872,1.582567334,-9.22994709,2.729389906
5.041287233,1.587355733,-9.227552414,2.700659513
5.046287266,1.632845521,-9.251494408,2.693476915
