Time (s),Acceleration x (m/s^2),Acceleration y (m/s^2),Acceleration z (m/s^2)
10.000937,1.512263894,-19.74557304,1.40697968
10.00569169,0.8063812256,-20.1667099,2.127219439
10.01044632,-0.09092725813,-20.31267166,2.785245657
10.01520101,-1.165304661,-20.24328041,3.421736479
10.01995564,-2.737389088,-19.77189445,2.311466694
10.02471033,-5.637490273,-18.83390617,-3.314059258
10.02946497,-7.293323517,-17.71167374,-5.979663849
10.03421966,-7.075576782,-16.54397583,-5.218746185
10.03897429,-6.056233883,-15.59641838,-2.79720974
10.04372898,-5.237888813,-14.98624802,-0.2584248483
10.04848361,-4.625326157,-14.52921867,1.749153376
10.0532383,-4.225724697,-14.29232979,2.947957516
10.05799294,-3.797409534,-13.9740839,3.383451223
10.06274762,-3.364308596,-13.36630726,3.589233875
10.06750226,-2.833101988,-12.58385468,3.476771355
10.07225695,-2.306680918,-11.67218876,2.92402935
10.07701158,-1.708475351,-10.53320503,1.909472466
10.08176627,-1.083948612,-9.401400566,0.6723831892
10.0865209,-0.3684946895,-8.219346046,-0.9068797827
10.09127559,0.2368894368,-7.135396957,-2.323430777
10.09603023,0.813559711,-6.24766016,-2.907279491
10.10078492,1.368694544,-5.637490273,-2.615355253
10.10553955,2.091326952,-5.185246468,-2.038684845
10.11029424,2.751745939,-4.890929699,-1.686939955
10.11504887,3.359523058,-4.725824833,-1.383051515
10.11980356,3.857230186,-4.639683247,-1.29451704
10.1245582,4.165904045,-4.649254322,-1.100698471
10.12931288,4.350151539,-4.591826439,-0.9403793216
10.13406752,4.386044025,-4.591826439,-0.708275497
10.13882221,4.323830605,-4.584648132,-0.5264210105
10.14357684,4.223331928,-4.622933388,-0.3684946895
10.14833153,4.005585194,-4.697110653,-0.2847459018
10.15308617,3.658625841,-4.756931305,-0.2464607358
10.1578408,3.168097258,-4.87417984,-0.3637090325
10.16259549,2.531606436,-5.060820103,-0.5479564071
10.16735012,1.842473388,-5.199603558,-0.7992027402
10.17210481,1.184447169,-5.278566837,-1.064806104
10.17685945,0.6699903607,-5.414957523,-1.29451704
10.18161413,0.1842473447,-5.532206059,-1.385444283
10.18636877,-0.2105683982,-5.682953835,-1.325623751
10.19112346,-0.5383850932,-5.781059742,-1.258624673
10.19587809,-0.7896314859,-5.840879917,-1.201196909
10.20063278,-1.069591761,-5.833701611,-1.11984098
10.20538742,-1.387837172,-5.776273727,-1.028913736
10.2101421,-1.734796405,-5.704489231,-0.9068797827
10.21489674,-2.088934183,-5.623133183,-0.7968099117
10.21965143,-2.419143677,-5.5154562,-0.6723831892
10.22440606,-2.553141832,-5.412564754,-0.6149554253
10.22916075,-2.550748825,-5.364708424,-0.5934200287
10.23391538,-2.62253356,-5.333601475,-0.6029912829
10.23867007,-2.773281336,-5.319244862,-0.6604190469
10.24342471,-2.916850805,-5.304887772,-0.6604190469
10.24817939,-2.967100143,-5.338387489,-0.708275497
10.25293403,-2.897708178,-5.410171986,-0.7298108935
10.25768872,-2.672782898,-5.556134224,-0.7154539824
10.26244335,-2.337787628,-5.716453075,-0.6675975323
10.26719804,-1.938186288,-5.941378593,-0.6532405615
10.27195268,-1.387837172,-6.113661766,-0.6317051649
10.27670736,-0.6699903607,-6.319444656,-0.5192425251
10.281462,0.1220339537,-6.494120598,-0.394815743
10.28621669,0.9475577474,-6.685546398,-0.2967100143
10.29097132,1.694118381,-6.87457943,-0.2273181528
10.29572601,2.455035925,-7.070790768,-0.1674975902
10.30048064,3.254238844,-7.341179848,0.007178467698
10.30523533,4.094119549,-7.628318787,0.2536391914
10.30998997,4.981856823,-7.920242786,0.7633104324
10.3147446,5.723631859,-8.118846893,1.701296926
10.31949929,6.379265308,-8.214560509,2.955136061
10.32425393,6.95114994,-8.38923645,4.223331928
10.32900861,7.549355507,-8.633303642,5.178068161
10.33376325,8.286344528,-9.049654961,5.761917114
10.33851794,9.111868858,-9.576076508,6.065805435
10.34327257,10.10488987,-10.34177971,6.096911907
10.34802726,11.15294647,-11.14816093,6.003592014
10.35278189,12.25843048,-11.93779182,5.718846321
10.35753658,13.0887394,-12.65563869,5.446064472
10.36229122,13.74915886,-13.24188042,5.151747227
10.36704591,14.25883007,-13.54337597,4.898108006
10.37180054,14.85703564,-13.67498112,4.534399033
10.37655523,15.60838223,-13.56491184,4.103690624
10.38130986,16.46022606,-13.01934814,3.713660717
10.38606455,17.17328835,-12.30867958,3.30927372
10.39081919,17.45803452,-11.49751282,2.914458036
10.39557387,17.42453384,-10.62413216,2.548356056
10.40032851,17.0416832,-9.765109062,2.177468538
10.4050832,16.65165329,-8.932407379,1.847259045
10.40983783,15.94816303,-8.197810173,1.591227055
10.41459247,15.16331673,-7.580461979,1.485942841
10.41934716,14.30907917,-6.967899323,1.445264935
10.42410179,13.35912895,-6.386443615,1.490728498
10.42885648,12.25843048,-5.850451469,1.555334687
10.43361111,11.09791183,-5.355136871,1.653440475
10.4383658,9.829715729,-4.967499733,1.746760488
10.44312044,8.494520187,-4.756931305,1.844866276
10.44787512,7.207181931,-4.742574692,1.983649969
10.45262976,6.044270039,-4.878965378,2.136790514
10.45738445,5.132604599,-5.268995285,2.244467735
10.46213908,4.409972191,-5.931807518,2.194218397
10.46689377,3.818944931,-6.960721016,2.024327993
10.4716484,3.555734396,-8.403593063,1.679761529
10.47640309,3.694518089,-10.16710377,1.03848505
10.48115773,3.818944931,-12.08136177,-0.1842473447
10.48591236,3.160918713,-13.97169113,-2.691925526
10.49066705,2.359323025,-15.92901993,-5.30728054
10.49542174,2.299502611,-17.61356735,-5.123033047
10.50017637,2.407179594,-19.02054787,-3.074777126
10.50493101,2.565105915,-20.35095596,-0.5742774606
10.5096857,2.665604353,-21.53301048,1.596012712
10.51444033,2.586641312,-22.40160561,3.479164124
10.51919502,2.313859463,-22.63131714,4.869394302
10.52394966,1.718046665,-21.49951172,5.72123909
10.52870395,1.222732425,-19.05883217,5.678168297
10.53345859,0.8542376757,-16.30230141,4.264009953
10.53821328,0.5910272002,-13.56251907,-0.2967100143
10.54296791,0.4689932466,-10.79162979,-8.532805443
10.5477226,0.380458802,-8.135597229,-10.3154583
10.55247724,-0.3182454109,-6.652047157,-6.486942291
10.55723192,-0.7465606928,-6.343372822,-2.703889608
10.56198656,-0.6580262184,-6.668796539,0.2584248483
10.56674125,-0.2440679073,-7.034898758,1.100698471
10.57149588,0.002392822644,-7.178467751,0.7250252366
10.57625057,0.06460621208,-7.08036232,0.1651047617
10.5810052,0.02632104978,-6.75972414,-0.09571290761
10.58575989,0.0765703246,-6.405586243,-0.1172483116
10.59051453,-0.09571290761,-6.173482418,0.04067798331
10.59526916,-0.2057827413,-6.147161484,0.2225325108
10.60002385,-0.4689932466,-6.195017815,0.08135596663
10.60477848,-1.00737834,-6.214160442,-0.07178468257
10.60953317,-1.308874011,-6.329015732,-0.1914258152
10.61428781,-1.658226132,-6.403193474,-0.3062812984
10.6190425,-1.995614052,-6.515655994,-0.404387027
10.62379713,-2.548356056,-6.635297298,-0.2799602449
10.62855182,-3.055634499,-6.853044033,-0.05982056633
10.63330645,-3.268595695,-7.068397999,0.1268195957
10.63806114,-3.189632654,-7.439285755,0.4139583111
10.64281578,-3.00538516,-8.001599312,0.6364908218
10.64757047,-2.679961443,-8.530412674,0.6221339107
10.6523251,-2.306680918,-9.032905579,0.7058826685
10.65707979,-1.763510346,-9.511469841,0.7968099117
10.66183442,-1.069591761,-10.04506969,0.94277215
10.66658911,-0.2871387303,-10.54277611,0.9308080077
10.67134375,0.3613162339,-10.94955635,0.9810572863
10.67609838,0.7920243144,-11.21755219,1.131805062
10.68085307,1.186840057,-11.413764,1.299302697
10.6856077,1.533799291,-11.58843994,1.497906923
10.69036239,1.730010748,-11.60040379,1.911865234
10.69511703,1.844866276,-11.50947666,2.615355253
10.69987172,2.043470621,-11.42333508,3.467200041
10.70462635,2.316252232,-11.36590767,4.295116425
10.70938104,2.624926329,-11.22951698,4.981856823
10.71413567,2.859423161,-11.01655579,5.374279499
10.71889036,2.993421078,-10.79641533,5.513063431
10.723645,2.986242771,-10.50209904,5.225924492
10.72839968,2.912065268,-10.22692394,4.61814785
10.73315432,2.811566591,-10.04267693,4.022335052
10.73790901,2.739781857,-9.87757206,3.59641242
10.74266364,2.658426046,-9.702896118,3.273381472
10.74741833,2.598605394,-9.59282589,2.880958557
10.75217297,2.478964329,-9.480362892,2.536391973
10.7569276,2.419143677,-9.403793335,2.287538528
10.76168229,2.340180635,-9.281759262,2.086541414
10.76643692,2.289931297,-9.233902931,1.993221283
10.77119161,2.282752752,-9.243474007,1.9812572
10.77594625,2.225325108,-9.324830055,1.962114573
10.78070093,2.213361025,-9.370293617,1.93340075
10.78545557,2.199003935,-9.427721024,1.931007862
10.79021026,2.134397745,-9.506684303,1.9812572
10.79496489,2.036292076,-9.540184021,2.01475668
10.79971958,1.909472466,-9.588040352,2.038684845
10.80447422,1.758724689,-9.645467758,1.926222205
10.8092289,1.689332843,-9.650253296,1.59840548
10.81398354,1.990828395,-9.588040352,1.129412293
10.81873817,2.380858421,-9.391828537,0.8446664214
10.82349286,3.268595695,-9.243474007,1.452443361
10.8282475,3.555734396,-9.032905579,2.258824587
10.83300218,3.555734396,-8.786444664,2.426322222
10.83775682,3.591626883,-8.583054543,2.545963287
10.84251151,3.56530571,-8.420342445,2.703889608
10.84726614,3.577269793,-8.236095428,2.560320139
10.85202083,3.541377544,-8.123632431,2.392822742
10.85677546,3.558127165,-7.975277901,2.376072884
10.86153015,3.562912941,-7.795815945,2.469393015
10.86628479,3.529413462,-7.637889862,2.495713949
10.87103942,3.467200041,-7.573283672,2.469393015
10.87579411,3.402593851,-7.556533813,2.390429735
10.88054875,3.37387991,-7.573283672,2.239681959
10.88530343,3.294916868,-7.673782349,2.033899307
10.89005807,3.172882795,-7.817351341,1.816152334
10.89481276,3.074777126,-8.039883614,1.627119422
10.89956739,2.995813847,-8.295916557,1.476371527
10.90432208,3.055634499,-8.554341316,1.31126678
10.90907672,3.146561861,-8.815158844,1.186840057
10.9138314,3.172882795,-9.071190834,1.107876897
10.91858604,3.225524902,-9.346364975,1.074377418
10.92334073,3.318845034,-9.583254814,1.00737834
10.92809536,3.378665686,-9.767501831,0.9595218897
10.93285005,3.359523058,-9.966106415,0.9523434043
10.93760468,3.259024382,-10.07139015,1.004985452
10.94235932,3.125026464,-10.17188931,1.048056364
10.94711401,3.007778168,-10.26281643,1.062413216
10.95186864,2.87856555,-10.34656525,1.050449133
10.95662333,2.785245657,-10.40877819,0.9451649189
10.96137796,2.739781857,-10.47817039,0.8255237937
10.96613265,2.768495798,-10.52841949,0.679561615
10.97088729,2.799602509,-10.50209904,0.5599204898
10.97564198,2.885744095,-10.46142101,0.409172684
10.98039661,2.931207657,-10.38245773,0.2584248483
10.9851513,2.964707375,-10.26281643,0.05264209956
10.98990593,2.964707375,-10.13121128,-0.1986042857
10.99466057,2.955136061,-9.982855797,-0.6317051649
10.99941526,2.931207657,-9.741181374,-1.253839016
11.00416989,2.969492912,-9.485149384,-1.993221283
11.00892458,2.945564747,-9.293723106,-3.383451223
11.01367922,3.21356082,-9.245866776,-8.738588333
11.0184339,4.022335052,-9.291330338,-11.61476135
11.02318854,4.515256405,-9.169296265,-8.477770805
11.02794323,4.122833252,-8.918049812,-4.39800787
11.03269786,3.443271875,-8.743373871,-1.658226132
11.03745255,3.060420275,-8.726624489,-0.394815743
11.04220718,3.041277647,-8.851051331,0.2536391914
11.04696187,3.330809116,-9.140582085,0.8446664214
11.05171651,3.905086517,-9.549755096,1.385444283
11.05647119,4.637290478,-10.03549862,1.878365755
11.06122583,5.414957523,-10.50209904,2.273181438
11.06598046,6.120840549,-10.90648556,2.608176708
11.07073515,6.805187702,-11.21515942,3.036491871
11.07548979,7.429714203,-11.49272728,3.450450182
11.08024448,7.941778183,-11.67458153,3.701696634
11.08499911,8.41077137,-11.94018459,3.742374659
11.0897538,8.707481384,-12.21296692,3.527020693
11.09450843,8.906085968,-12.3996067,3.153740168
11.09926312,8.944371223,-12.53360462,2.699103832
11.10401776,8.831908226,-12.43549919,2.000399828
11.10877244,8.673981667,-12.21057415,0.9906286001
11.11352708,8.867800713,-11.94736385,-2.146361828
11.11828172,9.990034103,-11.75593758,-8.606983185
11.1230364,10.75095177,-11.23908806,-10.14078236
11.12779104,10.28195858,-10.4350996,-6.549155712
11.13254572,9.470791817,-9.688538551,-2.754138947
11.13730036,8.882157326,-9.035298347,-0.4929214716
11.14205505,8.626125336,-8.496912956,0.5312066078
11.14680968,8.707481384,-8.049455643,0.5694918036
11.15156437,8.882157326,-7.719245911,-0.1268195957
11.15631901,9.013762474,-7.551748276,-0.9499505758
11.16107364,8.870193481,-7.444071293,-1.395015597
11.16582833,8.496912956,-7.475177765,-1.196411371
11.17058297,7.960920811,-7.728816986,-0.4881358147
11.17533765,7.434499741,-8.243273735,0.1698904037
11.18009229,6.955935478,-9.025727272,0.5455635786
11.18484698,6.561119556,-10.09292603,0.6005984545
11.18960161,6.084948063,-11.44965649,0.3756731451
11.19435625,5.592026711,-12.88535023,0.04546362907
11.19911093,5.082355499,-14.38325691,-0.1363908947
11.20386557,4.666004181,-15.89552116,-0.2656033039
11.20862026,4.094119549,-17.34078598,-0.3708875179
11.21337489,3.579662561,-18.56830406,-0.4761717021
11.21812958,3.311666489,-19.73600197,-0.3541377485
11.22288422,2.87856555,-20.80798531,-0.04067798331
11.2276389,2.266003132,-21.76511383,0.2297109663
11.23239354,1.703689694,-22.56192398,0.3302095234
11.23714822,0.9858429432,-23.12423897,0.7226324677
11.24190286,0.2799602449,-23.26062965,1.330409408
11.24665755,-0.8853443861,-23.02134705,2.024327993
11.25141218,-2.151147604,-22.26521492,2.574677229
11.25616682,-3.445664644,-21.22433662,3.125026464
11.26092151,-4.421936035,-19.85085678,3.589233875
11.26567614,-5.120640278,-18.30030823,3.577269793
11.27043083,-6.580262184,-16.52243996,-0.9619147182
11.27518546,-8.779266357,-14.22293758,-7.154539585
11.27994015,-8.41077137,-12.64367485,-6.226124287
11.28469479,-6.790830612,-11.8588295,-3.060420275
11.28944942,-5.568098068,-11.63629627,0.3541377485
11.29420411,-5.091926575,-11.64586735,2.780459881
11.29895875,-4.666004181,-11.526227,4.029513359
11.30371343,-3.979264021,-11.2008028,4.608576298
11.30846807,-3.139383316,-10.73420238,4.759324074
11.31322276,-2.306680918,-10.1527462,4.448257446
11.31797739,-1.483550072,-9.494720459,3.37387991
11.32273208,-0.6149554253,-8.791230202,1.591227055
11.32748672,0.1100698411,-7.980063438,-0.500099957
11.3322414,1.03848505,-7.190432072,-2.388036966
11.33699604,1.990828395,-6.501298904,-3.007778168
11.34175072,2.696711063,-5.984449387,-2.675175667
11.34650536,3.321237803,-5.589633465,-1.969292998
11.35126,3.754338741,-5.285745144,-1.304088354
11.35601468,4.036691666,-5.087141037,-0.760917604
11.36076932,4.125226021,-4.967499733,-0.2368894368
11.36552401,4.311866283,-4.833501816,0.1172483116
11.37027864,4.345366001,-4.742574692,0.3637090325
11.37503328,4.34775877,-4.613361835,0.5120640397
11.37978796,4.273581028,-4.55354166,0.7010970116
11.3845426,4.10608387,-4.429114819,0.8853443861
11.38929729,3.909872293,-4.36211586,1.110269666
11.39405192,3.6299119,-4.400400639,1.239482164
11.39880661,3.242274761,-4.500899315,1.325623751
11.40356125,2.720639229,-4.649254322,1.335195065
11.40831593,1.938186288,-4.831109047,1.339980721
11.41307057,1.196411371,-5.070391178,1.313659668
11.41782526,0.4977070987,-5.343173027,1.339980721
11.42257989,-0.05742774159,-5.601597786,1.272981644
11.42733453,-0.4809573591,-5.860022545,1.220339537
11.43208922,-0.8063812256,-6.101697922,1.141376376
11.43684385,-1.105484009,-6.329015732,0.9595218897
11.44159854,-1.387837172,-6.50369215,0.7537391186
11.44635317,-1.672582984,-6.580262184,0.5168496966
11.45110786,-1.990828395,-6.549155712,0.2440679073
11.4558625,-2.321038008,-6.484549522,-0.1674975902
11.46061713,-2.565105915,-6.498906136,-0.5718846321
11.46537182,-2.65364027,-6.472585201,-0.8829515576
11.47012645,-2.66799736,-6.537191391,-1.064806104
11.47488114,-2.742174864,-6.580262184,-1.043270707
11.47963578,-2.955136061,-6.637690067,-0.8973084688
11.48439046,-3.129812002,-6.716653347,-0.7680960894
11.4891451,-3.225524902,-6.769295216,-0.6723831892
11.49389974,-3.14895463,-6.788437843,-0.5862415433
11.49865442,-3.096312523,-6.783652306,-0.5694918036
11.50340906,-3.014956474,-6.754938126,-0.5575276613
11.50816375,-2.967100143,-6.719046116,-0.6245267391
11.51291838,-2.799602509,-6.707081795,-0.7106683254
11.51767307,-2.615355253,-6.690331936,-0.9355936646
11.5224277,-2.445464849,-6.661618233,-1.16769743
11.52718234,-2.30189538,-6.656832695,-1.540977836
11.53193703,-1.952543259,-6.69511795,-1.916650891
11.53669166,-1.13419795,-6.814758778,-2.313859463
11.54144635,-0.03589234129,-7.042077065,-2.845066071
11.54620098,0.9595218897,-7.329215527,-3.591626883
11.55095567,1.861616015,-7.673782349,-4.328616142
11.55571031,2.868994236,-8.118846893,-4.79521656
11.560465,4.079762459,-8.664410591,-4.886143684
11.56521963,5.577669621,-9.334401131,-4.500899315
11.56997427,7.496713161,-10.04267693,-3.419343472
11.57472895,9.332008362,-10.45424175,-0.8733802438
11.57948359,10.84905815,-10.43270683,3.26141715
11.58423828,11.55494022,-10.12403297,7.886743546
11.58899291,11.94975662,-10.08574772,11.18644619
11.5937476,12.65563869,-10.59541893,12.65803146
11.59850224,13.7611227,-11.6267252,11.92104244
11.60325687,15.18724537,-12.89252853,9.056833267
11.60801156,16.06062508,-13.72762394,6.374479294
11.61276619,15.90987778,-14.12483215,4.295116425
11.61752088,15.62752438,-14.23250866,2.778067112
11.62227552,15.8811636,-13.98844147,1.823330879
11.6270302,16.44347763,-13.46919823,1.205982566
11.63178484,16.84547234,-12.77767277,0.9212366939
11.63653948,16.87418556,-11.99522018,0.8350951076
11.64129416,16.58943939,-11.09312534,0.8303094506
11.6460488,15.94337749,-10.15753174,0.7920243144
11.65080348,15.12981796,-9.317651749,0.8685946465
11.65555812,13.85204983,-8.46819973,1.016949654
11.66031281,12.52642632,-7.618747234,1.196411371
11.66506744,11.33001518,-6.79561615,1.402194023
11.66982213,10.23888779,-6.149554253,1.607976794
11.67457677,9.09990406,-5.848058701,1.665404558
11.6793314,8.382058144,-6.39601469,1.457229018
11.68408609,7.867600918,-7.491927624,0.9523434043
11.68884072,7.247859955,-8.963513374,0.1052841991
11.69359541,6.56829834,-10.67438221,-0.9284151793
11.69835005,5.965306759,-12.55274773,-2.084148407
11.70310468,5.62791872,-14.41675663,-2.778067112
11.70785937,5.6566329,-16.04866219,-2.316252232
11.71261401,5.728417397,-17.37189293,-1.098305583
11.71736869,5.517848969,-18.49891281,0.3158525825
11.72212333,5.271388054,-19.61875343,1.880758643
11.72687802,5.123033047,-20.40838432,3.787838221
11.73163265,4.673182487,-20.54238319,5.460421085
11.73638729,3.763910055,-19.53021812,5.972485542
11.74114198,2.730210543,-17.4317131,5.199603558
11.74589661,1.969292998,-14.87617874,3.328416348
11.7506513,1.50269258,-12.40917778,0.7944171429
11.75540593,1.110269666,-10.53081226,-1.349551916
11.76016062,0.4689932466,-9.193224907,-3.388236761
11.76491526,-0.8973084688,-8.188239098,-5.536991596
11.76966989,-1.93340075,-7.700103283,-5.343173027
11.77442458,-1.466800332,-7.439285755,-3.474378586
11.77917922,-0.7465606928,-7.168896675,-2.072184324
11.7839339,-0.3206382394,-6.924828529,-1.418943882
11.78868854,-0.1387837082,-6.697510719,-0.8255237937
11.79344317,-0.2177468538,-6.448657036,-0.5599204898
11.79819786,-0.3182454109,-6.135197163,-0.390030086
11.8029525,-0.6580262184,-5.831308842,-0.3302095234
11.80770718,-1.117448211,-5.517848969,-0.3493520916
11.81246182,-1.521835208,-5.288137913,-0.394815743
11.81721651,-2.091326952,-5.11585474,-0.3996013701
11.82197114,-2.744567633,-5.00339222,-0.3828516304
11.82672583,-3.158525944,-4.957928658,-0.2703889608
11.83148046,-3.270988464,-5.077569485,-0.1387837082
11.8362351,-3.304488182,-5.374279499,-0.01674975827
11.84098979,-3.304488182,-5.804987907,0.1316052526
11.84574442,-3.134597778,-6.393621922,0.2033899277
11.85049911,-2.835494757,-7.008577347,0.1316052526
11.85525375,-2.46221447,-7.621140003,0.07896314561
11.86000843,-2.093719721,-8.226524353,0.1268195957
11.86476307,-1.758724689,-8.870193481,0.1698904037
11.8695177,-1.540977836,-9.46361351,0.3637090325
11.87427239,-1.335195065,-10.03071213,0.4953143001
11.87902703,-1.160519004,-10.5858469,0.5934200287
11.88378172,-0.8997012973,-11.12662506,0.6843472719
11.88853635,-0.5575276613,-11.6267252,0.813559711
11.89329098,-0.2919243574,-12.05025482,1.091127157
