Time (s),Acceleration x (m/s^2),Acceleration y (m/s^2),Acceleration z (m/s^2)
6.004908511,0.4148596099285374,-1.328367159344101,-0.25836339030591204
6.009908511,-0.26622473053157386,-0.9946995923180321,-1.3264823533202823
6.014908077,-0.9356179799317457,-0.6741573456210433,-2.3609318497349565
6.019907143,-1.582197117745633,-0.36842250663182885,-3.3321500296749855
6.024907109,-2.1953094461311027,-0.0783761821684287,-4.212919432343928
6.029907109,-2.7650226520360284,0.19595964648631126,-4.9793567439636846
6.034907142,-3.282356811308124,0.455439930283661,-5.611759515497978
6.039907175,-3.7394915942205174,0.7017690083295108,-6.095274250058414
6.044907208,-4.129942910172249,0.9374251136274337,-6.420358746378353
6.049907208,-4.448704378675298,1.1655369887295162,-6.583021261006005
6.054907241,-4.692350243747811,1.3897154202082453,-6.584829457880432
6.059907874,-4.859097578389359,1.613845191046376,-6.432692757671835
6.064907874,-4.948826793391707,1.841845445388529,-6.138432074482187
6.06990854,-4.963060531527423,2.077408638428447,-5.71816052475906
6.07490924,-4.904901978145145,2.32372999955004,-5.191507022930461
6.079909906,-4.778934459429004,2.583240681416133,-4.580721302260722
6.084910572,-4.5910849591156415,2.8573584335154973,-3.909703463543813
6.089911438,-4.348454907591447,3.1462696792123737,-3.2030034200340096
6.094911804,-4.059122328514053,3.448756268364487,-2.4848354809632482
6.09991267,-3.7319201928634818,3.7620789286837852,-1.7781508651129618
6.10491357,-3.37619662031219,4.081927583061222,-1.1038063816969932
6.109913803,-3.0015633378573923,4.4024462982634684,-0.47986120938492655
6.114913836,-2.6176394830457848,4.716337763893907,0.07897390908517152
6.119913869,-2.233798339473682,5.015048963841525,0.5617191581053772
6.124914569,-1.858924835061449,5.289036200181257,0.9613326312301363
6.129915235,-1.5011915542770893,5.528103977380704,1.2747430957138526
6.134915235,-1.167860574590414,5.7218085834081664,1.5027176569306995
6.139915201,-0.865117626622906,5.859913660852142,1.649580248952204
6.144915167,-0.5979439202436757,5.932881803265758,1.7228024147876102
6.149915133,-0.3700295273822752,5.932383397637711,1.732491948804101
6.154915133,-0.1837305426459623,5.8518017099013955,1.6908075863396859
6.159915166,-0.040070449401580575,5.686711703327342,1.6113290491308736
6.164915599,0.061215692775974245,5.435309390875396,1.5084114606943884
6.169916532,0.12159734665601253,5.098768727300727,1.3965515552033596
6.174916532,0.1436295262280881,4.681504196249845,1.2897903795312529
6.179916532,0.13080467134555818,4.191319371381786,1.2011735272522288
6.184916498,0.0873822340018866,3.639424835482155,1.1422855710544115
6.189916498,0.018203443609624306,3.0403129054007474,1.1228705273842106
6.194916498,-0.0715010328507964,2.4114815733386274,1.1505451625581762
6.199916531,-0.17630290894778985,1.773005830488454,1.2306070046615103
6.204916497,-0.2907603431121305,1.1469609308521385,1.36593431883067
6.209916497,-0.40958767293520476,0.5567089742200473,1.5569712642576268
6.214916463,-0.5278051088626461,0.02606718308921401,1.8017881634590982
6.219916429,-0.6408637042846047,-0.42161688212922666,2.096204403275794
6.224916395,-0.7447420742676265,-0.7644515350034383,2.4339600236105996
6.229916395,-0.8360125981030692,-0.9830114679932361,2.8069215970372556
6.234916395,-0.9118761872287654,-1.0613312503358052,3.205308678772262
6.239916428,-0.9701660787555954,-0.9878380798412987,3.6179290621287827
6.244916061,-1.0093224594686563,-0.7561795915052122,4.03241432322481
6.249916094,-1.0283409939218147,-0.365904132589057,4.435451378208281
6.254916094,-1.0266995130431695,0.17704546552974346,4.813010383961698
6.25991676,-1.0042681986114688,0.860058089328808,5.150573533968259
6.264916726,-0.9612095193636392,1.6638268045283813,5.4333724847227405
6.269916726,-0.8978748585802674,2.5625852321900764,5.646643896719213
6.274916726,-0.8147051435266833,3.5246157039041845,5.77591275032021
6.279916759,-0.7121427720166916,4.513026437421069,5.807311743779097
6.284916759,-0.5905616622405293,5.486783891435731,5.727942337304241
6.289916759,-0.45022127709403803,6.401975322382453,5.526279065689068
6.294916759,-0.2912489848108997,7.213265796064944,5.192613847988344
6.299916759,-0.11365317205825301,7.875503917016787,4.71953149476285
6.304916759,0.08263274583236781,8.345421737043157,4.10240185122237
6.309916725,0.2976776866215158,8.583367101419345,3.3398684721388747
6.314916725,0.5314562538229083,8.555001497058173,2.43430886752971
6.319916725,0.7837347832067988,8.232893674291983,1.3922376332810518
6.324916758,1.0539484275272717,7.597939266686884,0.22462159301798346
6.329916758,1.3410786854234207,6.6405395896672434,-1.0529242369539746
6.334916758,1.643541172027285,5.36147889508393,-2.420089252836604
6.339916724,1.959093109364001,3.772448581990781,-3.8519938201420385
6.34491669,2.2847689916225735,1.896179035883468,-5.319508974899169
6.349916656,2.616851208309491,-0.23384545484629002,-6.789780287067616
6.354916656,2.950880186318399,-2.5740963779532073,-8.22695707632892
6.359916656,3.2817059810470823,-5.0721246115146625,-9.593117154876525
6.364916689,3.603580386525531,-7.668068305805655,-10.849365653458088
6.369916722,3.9102857595367504,-10.29649659125685,-11.957074957785665
6.374916755,4.195294106837258,-12.888523155031296,-12.879222111105848
6.379916755,4.451947830141065,-15.374108581727668,-13.581771007872964
6.384916755,4.673652115107634,-17.684458681465387,-14.035040024108874
6.389916721,4.854068485886031,-19.754418784433533,-14.214991965063083
6.394916721,4.987299603620227,-21.524761809941136,-14.104382734135646
6.399916721,5.068056881493789,-22.944271073186773,-13.69370812416538
6.404916754,5.091804688613727,-23.971527155751,-12.981894622014273
6.409916754,5.0548775062471645,-24.576321315745407,-11.976689949938413
6.414916754,4.954569054729242,-24.74063517228941,-10.694721879209878
6.41991672,4.789194821314183,-24.45914683999519,-9.161209036369646
6.424916686,4.558131316563629,-23.739246164117944,-7.409324180115049
6.429916652,4.261836552411981,-22.600564922163038,-5.479227868863926
6.434916652,3.9018565369996474,-21.074050483770538,-3.4168076747195517
6.439916685,3.4808219975878063,-19.20063220438201,-1.2721742682312993
6.444916718,3.0024381691470134,-17.029547676450463,0.9020200455747998
6.449916751,2.471468536405015,-14.616409970577498,3.052363341768336
6.454916751,1.8937112203208057,-12.021106436327134,5.126482236961445
6.459916751,1.2759646640055027,-9.305623963449301,7.074769812647016
6.464916717,0.6259777808742439,-6.531894622162497,8.851961530437457
6.469916683,-0.04762098495415886,-3.759749584461823,10.418488781783765
6.474916683,-0.7354211179432381,-1.0450589594757718,11.74155681176798
6.479916716,-1.4273585630034689,1.561878218144413,12.795914411219139
6.484916749,-2.112878354580592,4.017644884136667,13.564304448393443
6.489916749,-2.7811323093876616,6.286684751927182,14.037604597583256
6.494916749,-3.421210288137819,8.341931782079229,14.214684580971992
6.499916749,-4.022400811798063,10.165087782090065,14.102018606537117
6.504916749,-4.57447400611987,11.746558817300302,13.713098905467689
6.509916749,-5.067977133024998,13.085072536136579,13.06769842646421
6.514916715,-5.494530550372997,14.187008028843163,12.191028408504994
6.519916715,-5.847110025130325,15.065477451727418,11.11283067359284
6.524916715,-6.120300105313808,15.73920444377917,9.866436281245857
6.529916748,-6.31050292797982,16.231248486593337,8.487813126586332
6.534916748,-6.416087600021499,16.567627004025777,7.014616766357306
6.539916748,-6.437467298982316,16.775888354848302,5.485252758862478
6.544916714,-6.377094546505473,16.883689050556324,3.937956099534446
6.549916714,-6.239369544535327,16.917427510245787,2.409893985521197
6.554916714,-6.030461657248476,16.900984315435807,0.936301293540068
6.559916747,-5.75804957160569,16.85461509825635,-0.45033755136992054
6.564916747,-5.430990884815371,16.794036804117493,-1.721042545798194
6.569916747,-5.058936451827208,16.729741152896974,-2.8510072482391093
6.574916747,-4.651908502005665,16.6665608433848,-3.820161274142401
6.579916747,-4.2198641212942185,16.60350466571136,-4.613605127190425
6.584916747,-3.772267088217163,16.533867535152076,-5.22189903910166
6.589916713,-3.3176912040956688,16.44561091136768,-5.641191871961151
6.594916679,-2.86347718187499,16.32199851834643,-5.873181905711697
6.599916679,-2.4154629164935266,16.142462138171627,-5.924908103937618
6.604916712,-1.9778036476461829,15.883662914519816,-5.808377752899781
6.609916745,-1.5528942391695377,15.520705448600625,-5.540043629182064
6.614916745,-1.1414006155542396,15.028455349994024,-5.140150405947105
6.619916745,-0.7424014061656439,14.382906119300038,-4.631975211494277
6.624916711,-0.3536342432139816,13.562538520354277,-4.04099069553173
6.629916711,0.028165691984114734,12.549615089396799,-3.3939806271631836
6.634916711,0.4068538481790862,11.3313541757294,-2.7181382815617785
6.639916744,0.7864158763504958,9.90093187715119,-2.0401771219455793
6.644916744,1.1704875485051525,8.258266313020751,-1.3854818894896284
6.649916744,1.5618864559421237,6.410546682771135,-0.7773263111955496
6.654916744,1.9621873511405044,4.372479222995289,-0.23618119121065603
6.659916744,2.3713712925152386,2.1662331601382108,0.22086643920222487
6.664916744,2.7875749625676085,-0.1789183402501962,0.5805662465785347
6.66991671,3.20696084270701,-2.627254830689883,0.8338172218164276
6.67491671,3.6237216534171868,-5.137542999409576,0.9758326429695751
6.67991671,4.030224031853925,-7.664216951922967,1.0061552556306255
6.684916743,4.417287341322609,-10.158761282687712,0.9285257292578587
6.689916743,4.774584379674514,-12.571244066990692,0.7506122823492757
6.694916743,5.091142207036237,-14.85193902920716,0.4836136628280668
6.699916709,5.355913980950644,-16.952970744053292,0.14175131151036696
6.704916675,5.5583871635153175,-18.829914311773884,-0.25833049505714517
6.709916641,5.689190257771577,-20.44328189604298,-0.6982353787765714
6.714916641,5.740659703202553,-21.759832988494676,-1.1585335216480466
6.719916641,5.70733086596661,-22.753653163752034,-1.6195039948368162
6.724916674,5.586322072440393,-23.40695703712604,-2.0618757107046077
6.729916707,5.37758791658072,-23.710584504730196,-2.4675417989961863
6.73491674,5.084026920102979,-23.664174292967026,-2.820222812730798
6.73991674,4.711438203186105,-23.276014391892716,-3.1060556239971606
6.74491674,4.268331315997188,-22.562584082208485,-3.314087194591122
6.749916706,3.7656020990096666,-21.547816062299905,-3.4366555533141336
6.754916706,3.2160948589234497,-20.262118892677037,-3.4696441851144946
6.759916706,2.6340768987225234,-18.741209075844218,-3.4126005078036616
6.764916739,2.0346552927510655,-17.024808277764183,-3.2687140218949082
6.769916739,1.433167645282461,-15.15526436555263,-3.044654881181597
6.774916739,0.8445784369063907,-13.17615513855444,-2.750278828824886
6.779916705,0.28291059644504873,-11.13093105363834,-2.398209437210186
6.784916671,-0.23926160372590383,-9.061648192733921,-2.003313143739193
6.789916637,-0.7112370030856783,-7.007835592176806,-1.582086486318264
6.794916637,-1.1245136467818388,-5.005532326230834,-1.151978061607268
6.79991667,-1.4730068520329391,-3.0865199360489055,-0.7306699624570124
6.804916703,-1.753155665548968,-1.2777654631698359,-0.3353447574694823
6.809916736,-1.9639199008281853,0.3989199853535619,0.018035535033122503
6.814916736,-2.1066751154366377,1.9270120530861286,0.3154124978152668
6.819916736,-2.1850172486039936,3.295207161203845,0.5452516540806346
6.824916702,-2.2044920449240983,4.4971812104971205,0.6990772829900093
6.829916702,-2.172266756130663,5.53120049497757,0.7719014228139807
6.834916702,-2.096762909225387,6.399616680194464,0.7625298368515834
6.839916735,-1.9872691773109863,7.108280158849872,0.6737312697856187
6.844916768,-1.8535526608914035,7.665906691665657,0.5122603075634795
6.849916768,-1.7054852971981067,8.083431054168587,0.2887285014042704
6.854916768,-1.5526998125022233,8.373378600907582,0.017323040301323738
6.859916768,-1.4042867913057153,8.54928145824295,-0.2846229369615017
6.864916768,-1.268541245493011,8.625160756491287,-0.5971994021613855
6.869916768,-1.15276371795076,8.61509025119374,-0.8986139830071103
6.874916734,-1.0631176334004342,8.532850230448984,-1.1659932938330282
6.879916734,-1.0045414853328818,8.391674136386639,-1.376267728260103
6.884916734,-0.9807116776396453,8.204084204133585,-1.5071120857482414
6.889916767,-0.9940495602494792,7.981806965711953,-1.5379105898320715
6.8949161,-1.045764521448669,7.7357549526018,-1.4507117481916518
6.8999161,-1.1359240005761149,7.4760575711446595,-1.2311363517539842
6.904916066,-1.2635409934425808,7.212122064750237,-0.8692009674711509
6.909915366,-1.4266700222864819,6.952704791559062,-0.36001978035155596
6.914914666,-1.6225035721516543,6.705973740080463,0.2956502347069351
6.919913766,-1.8474625584889495,6.479545212279459,1.0910519812854425
6.924913799,-2.097276357608015,6.2804807918690795,2.013284347595678
6.929912965,-2.3670501487731506,6.115234894704487,3.043390165317044
6.934912331,-2.6513196128455023,5.989548126044586,4.156685860234688
6.939911431,-2.9440952269829346,5.908287059771648,5.323332967703873
6.944912464,-3.2389003112086967,5.875236587014903,6.509141296042674
6.949911764,-3.5288084623454963,5.892856315043137,7.676582820221604
6.954910864,-3.8064869257477825,5.962017285174744,8.7859848277966
6.959909964,-4.064252710739713,6.0817391746283445,9.796860921582315
6.964909997,-4.294147794083965,6.248950796142206,10.669329840148674
6.96991003,-4.488038589273276,6.4582977497604945,11.365565563348367
6.974909363,-4.637743124626988,6.7020202178148,11.851218869501402
6.979908663,-4.735187324004421,6.969921024984112,12.096751152122318
6.984937229,-4.772589673261135,7.2494393920983144,12.078625805011864
6.989937195,-4.742671510585464,7.525839736015505,11.780309909852264
6.994937161,-4.638888201144475,7.782517991067834,11.193048063927632
6.999937161,-4.455674523196804,8.001420838656083,10.31637997524992
7.004937194,-4.188695741369015,8.163566434753713,9.158383370246622
7.009937227,-3.8350941840506976,8.249649117198938,7.735633553209553
7.014936593,-3.3937198296729805,8.240705464426062,6.072880506223676
7.019936593,-2.865332601696624,8.118815206211801,4.202453638465349
7.024936593,-2.252763914703003,7.867808031209204,2.163413098766484
7.029936293,-1.5610256050271927,7.473946394612342,0.0004748446263471912
7.034936293,-0.7973557679241081,6.926555013851045,-2.237255745496259
7.039936293,0.0288068030871846,6.2185697728940506,-4.497700246666567
7.044936993,0.9059250013175933,5.346982075044537,-6.7273265891185865
7.049936993,1.8205446110964056,4.313159058087635,-8.872720542117642
7.054937359,2.7575525473783222,3.1230252336063034,-10.882156152030289
7.059938025,3.700506468920964,1.7870967342661308,-12.707111864130486
7.064938691,4.632026386487291,0.32036516153812483,-14.303681081248998
7.069939591,5.534235580475152,-1.2579662284155058,-15.633830068534445
7.074939557,6.389235453105735,-2.9248857857053716,-16.6664621985329
7.079940423,7.179597022754544,-4.6541029198972526,-17.378255204276712
7.084941089,7.888850722282603,-6.416686044906786,-17.75424695246149
7.089942022,8.50195603718436,-8.18178761961529,-17.788154818394922
7.094940355,9.005733304469528,-9.917432089710717,-17.482423588125034
7.099941021,9.389241622432525,-11.591340740674427,-16.848006484530636
7.104941487,9.64408917528309,-13.171766717929547,-15.903892990916127
7.109942353,9.764665194474837,-14.628313725351543,-14.67640526146219
7.114942319,9.74828607424648,-15.932713088916053,-13.198291782347798
7.119942285,9.595251638696116,-17.059535845430798,-11.507652402678
7.124942951,9.308811038416584,-17.98681915140033,-9.646732817224317
7.129943651,8.895041077014175,-18.696589472647965,-7.660629076617163
7.134915084,8.362642802595097,-19.175268592719657,-5.595943831630972
7.139915117,7.722664847411124,-19.41395235919907,-3.499435958688238
7.144915117,6.988164188855278,-19.408556166419295,-1.4167041756243381
7.149915117,6.173816692604569,-19.159825343705744,0.6090565409050498
7.154915083,5.295490967902774,-18.67321277394309,2.538189288380137
7.159914416,4.369799729020272,-17.958630105170077,4.335566655827936
7.164915016,3.413643058593437,-17.030082738238924,5.971408667673224
7.169915049,2.4437577731404705,-15.905202277864008,7.421900112516505
7.174915049,1.4762865576131288,-14.604693221066032,8.669584016407
7.179915315,0.526379670703807,-13.151713202460078,9.703513001758887
7.184915281,-0.3921592326030641,-11.571207950040233,10.519147417564614
7.189915247,-1.2671733126134597,-9.889223032020373,11.117999533831835
7.194915213,-2.088391032356802,-8.13221436655017,11.507037011188558
7.199915213,-2.8475974861029756,-6.326378369916924,11.69787514163817
7.204914879,-3.5387355114087002,-4.497020787161104,11.705803759151566
7.209914912,-4.157935830665173,-2.667981048874001,11.548708704879902
7.214914945,-4.703477622825265,-0.8611267625793524,11.245957219897909
7.219914978,-5.175682883217177,0.9040691368462717,10.817320352154777
7.224914978,-5.576749656337794,2.610857967384039,10.282002962148956
7.229914944,-5.910530704938109,4.245442845080147,9.657843459084152
7.23491491,-6.182265400225741,5.797097355819988,8.960731795712226
7.23991491,-6.398273578991199,7.258170676710628,8.204276666476282
7.244915576,-6.565620814785973,8.623976987855807,7.39973269535787
7.249915609,-6.691765002590372,9.892569967601544,6.556177198307721
7.254916009,-6.784194389330385,11.064406582802194,5.680905445526955
7.259916009,-6.850067262940493,12.14190827198386,4.779994886804821
7.264916009,-6.895863566079271,13.128931979961177,3.8589743690883678
7.269916009,-6.927058885720972,14.030168345924501,2.923525902319648
7.274916009,-6.947831661907254,14.850489576787655,1.9801454639110272
7.279915975,-6.9608149281309535,15.594274800858425,1.0366957925491223
7.284915975,-6.966904131895537,16.26474536483719,0.1027966533802849
7.289915975,-6.965132261585753,16.863345883592434,-0.8099856739078691
7.294916008,-6.952622423906314,17.389208284142402,-1.6881701549602917
7.299916008,-6.924626116072395,17.838735258018442,-2.5166168148733723
7.304916008,-6.874652753680446,18.20533634031062,-3.278992914698218
7.309916641,-6.794692639205692,18.4793443401423,-3.958421179754327
7.314916674,-6.675531620233181,18.648132267693985,-4.5382695643465265
7.31991664,-6.507151361697024,18.696441568748945,-5.003032664404671
7.32491664,-6.279204645006966,18.6069218251199,-5.3392486573197395
7.329916673,-5.981550634219874,18.360870630740564,-5.5363927466707406
7.334916706,-5.604830854561194,17.939150695224008,-5.587688577617321
7.339916739,-5.141062955897484,17.323249983709697,-5.490782887488414
7.344916772,-4.584226422682256,16.496440507350226,-5.2482355465691315
7.349916772,-3.930812466706282,15.444982845628681,-4.867786770789077
7.354916738,-3.1803095979163096,14.159317172084172,-4.362375169307769
7.359916704,-2.335596969551732,12.635177950075661,-3.749893835726926
7.364916704,-1.403219633281899,10.874568931286147,-3.052686222536355
7.369916704,-0.39352332798183304,8.886537841601989,-2.296798298100345
7.374916737,0.6793687264576065,6.687696211635082,-1.5110176502433013
7.379916737,1.797748520731738,4.302439057196188,-0.7257429130679298
7.384916737,2.9406899033965166,1.7628312438649365,0.02826265914835776
7.389916703,4.084585870422018,-0.8918580326418776,0.7211721391944605
7.394916669,5.203844873736574,-3.6159746797761714,1.3253849681243721
7.399916635,6.271725973279702,-6.3586372692669455,1.8167402458540145
7.404916635,7.261284211211988,-9.065198664445507,2.1755907595831596
7.409916668,8.146389666261229,-11.678959868168453,2.3876821869074947
7.414916701,8.902776746789456,-14.143068000350569,2.444792082256082
7.419916734,9.509074978516367,-16.402516699650686,2.345095981360542
7.424916734,9.947769462497423,-18.40615734155069,2.093242371389654
7.429916734,10.206038921924232,-20.10862426365519,1.7001334555453198
7.4349167,10.27642229481416,-21.47207747060749,1.182423738262235
7.4399167,10.157271400731961,-22.467672509199616,0.5617627225420975
7.4449167,9.852957229613029,-23.076679384873607,-0.13617921403702654
