Time (s),X (m/s^2),Y (m/s^2),Z (m/s^2)
6.008172167,-0.9095837131589612,4.111273262084158,4.453899799637224
6.018098167,-1.0650188843456931,3.58624726680328,4.230156432558988
6.028024167,-1.2129829529832823,3.04123866008905,3.999579239831562
6.037951167,-1.352137209735712,2.480012574894292,3.7648694651068078
6.047877167,-1.4812302239114326,1.9064243914473562,3.5286189573785083
6.057803167,-1.5991150440926263,1.3243880103326715,3.293280140177283
6.067729167,-1.7047649613264693,0.7378446449792361,3.0611388967531603
6.077655167,-1.7972875215261646,0.15073237121007263,2.8342906677887543
6.087581167,-1.8759365061775526,-0.4330433698131421,2.6146199926279734
6.097508167,-1.9401216441534084,-1.0096381592728505,2.4037836597959137
6.107434167,-1.9894158721332451,-1.5752957575452906,2.2031975724797324
6.117360167,-2.0235600251608417,-2.1263739339419794,2.0140273822378187
6.127286167,-2.042464909280566,-2.6593688872728927,1.8371829001085582
6.137212167,-2.046210781052182,-3.17093817847395,1.6733162574810243
6.147138167,-2.035044329294018,-3.657922090694356,1.522823757023325
6.157065167,-2.0093733168917973,-4.117363320664897,1.3858513230992182
6.166991167,-1.969759088127805,-4.546524892991909,1.2623034277302307
6.176917167,-1.9169071726653693,-4.9429061827251095,1.1518553288191862
6.186843167,-1.8516562165573305,-5.3042569379540545,1.0539684097190114
6.196769167,-1.7749654463128304,-5.628589218414441,0.9679083548452128
6.206695167,-1.6879008373894064,-5.914187209061659,0.8927658425998171
6.216622167,-1.5916201327504247,-6.159614924911469,0.8274793951555987
6.226548167,-1.4873568550749225,-6.363721886426237,0.7708600001786498
6.236474167,-1.3764034801076357,-6.5256469019936,0.7216171075409684
6.246400167,-1.2600939794396104,-6.644820133533463,0.6783855934539996
6.256326167,-1.1397859853911336,-6.720963633239401,0.6397532668275585
6.266252167,-1.0168428676202028,-6.754090520063108,0.6042884672822159
6.276179167,-0.8926160351338834,-6.744502917024047,0.5705672770664206
6.286105167,-0.7684277882048467,-6.692788703240075,0.537199851384579
6.296031167,-0.6455550435061959,-6.599817060858073,0.5028553819024543
6.305957167,-0.5252142411217132,-6.466732737937773,0.46628526639364387
6.315883167,-0.4085477099272339,-6.294948930284257,0.42634415888905325
6.325809167,-0.2966117170451059,-6.086138721325216,0.3820086753066576
6.335736167,-0.19036636271366303,-5.842225090942814,0.3323935867569125
6.345662167,-0.090667410858616,-5.565369570982208,0.2767653571663984
6.355588167,0.001739927364778072,-5.257959653328751,0.21455291534829338
6.365514167,0.08622530855563211,-4.92259503787711,0.14535560278763798
6.375440167,0.16227577653580674,-4.5620727558348335,0.06894827830287707
6.385366167,0.22949662510816587,-4.179371138464854,-0.014716427447250805
6.395293167,0.2876107561020929,-3.7776325376697493,-0.10550871660116982
6.405219167,0.33645668691661373,-3.360144652913438,-0.2031250909709695
6.415145167,0.37598536142613537,-2.9303202893182814,-0.3070946606899235
6.425071167,0.4062559192959718,-2.4916753757205647,-0.41678823343243954
6.434997167,0.42743058069372514,-2.047805115792372,-0.5314300695401661
6.444923167,0.43976880166335547,-1.6023582265528946,-0.6501121280194662
6.454850167,0.4436208446537629,-1.1590093221005004,-0.77181056811824
6.464776167,0.4394208863729852,-0.7214296061171759,-0.8954042173037604
6.474702167,0.42767975421651033,-0.2932561283636791,-1.0196946700910503
6.484628167,0.40897734981965966,0.12194006817665982,-1.143427638796052
6.494554167,0.38395479062250054,0.5206865289932952,-1.2653151337706767
6.504480167,0.35330628220067534,0.8996422765686671,-1.3840580122406476
6.514407167,0.3177707274658281,1.2556305519040445,-1.4983684130499624
6.524333167,0.27812308327134644,1.585670934140259,-1.606991598391899
6.534259167,0.23516548807769586,1.8870103556536713,-1.708726753257941
6.544185167,0.18971820285414448,2.1571525373956195,-1.802446342382106
6.554111167,0.14261042827269713,2.3938853914135247,-1.8871136855974717
6.564037167,0.09467108171720727,2.595305972771816,-1.9617984803698119
6.573964167,0.04671963435629281,2.7598426091854615,-2.025690070251565
6.583890167,-0.00044288244541272945,2.8862738905307808,-2.0781083261059585
6.593816167,-0.04604259336137801,2.973744258293056,-2.118512070825066
6.603742167,-0.08934111984079651,3.0217759935363784,-2.1465050361141906
6.613668167,-0.12964345910641906,3.030277458305359,-2.16183938903883
6.623594167,-0.16630532087269137,2.9995474960200776,-2.1644169051835758
6.633521167,-0.19873983642345275,2.9302759369037648,-2.1542878976321136
6.643447167,-0.22642354242924576,2.82354018177691,-2.131648041541118
6.653373167,-0.24890153102299517,2.680797853411707,-2.096833263949869
6.663299167,-0.265791657129824,2.503875515731815,-2.0503128935135573
6.673225167,-0.27678770825539467,2.294953475647462,-1.9926812797696671
6.683151167,-0.2816614703860533,2.056546706128991,-1.9246480940116377
6.693078167,-0.2802636631283135,1.7914819644900424,-1.847027515209336
6.703004167,-0.27252376306058884,1.5028712263997663,-1.760726488093641
6.712930167,-0.2584487804685389,1.1940816121620628,-1.6667322204805914
6.722856167,-0.23812109428667044,0.8687020444529134,-1.5660990672619957
6.732782167,-0.21169547660815755,0.5305069417441135,-1.4599349335932992
6.742708167,-0.1793954464270625,0.18341731370980732,-1.3493873242319037
6.752635167,-0.14150907975614993,-0.16854032117614146,-1.2356291736267246
6.762561167,-0.09838437213588366,-0.5212767330478528,-1.1198446127171782
6.772487167,-0.05042420925458071,-0.8706839988459633,-1.0032148570957373
6.782413167,0.0019190332859991281,-1.2126802243160453,-0.886904424825533
6.792339167,0.05814925658033494,-1.5432544362616782,-0.7720478998159603
6.802266042,0.11773276177212114,-1.8585111003330441,-0.659737446598138
6.812192042,0.18010469840445212,-2.1547137133745005,-0.5510112617060461
6.822119042,0.24467577494687806,-2.428326916229256,-0.4468431224385618
6.832045042,0.3108391366030553,-2.6760565702259127,-0.3481331653055792
6.841971042,0.37797728938668834,-2.8948872373047045,-0.25569999107059393
6.851897042,0.44546893464659476,-3.0821165032643094,-0.17027415405259338
6.861823042,0.5126955788498241,-3.2353855958272972,-0.09249305736044897
6.871750042,0.5790478024496257,-3.3527057915616854,-0.022897242948222023
6.881676042,0.64393110615499,-3.432480197994821,0.03807197280505742
6.891602042,0.7067712895882111,-3.4735206446488,0.09007361235780556
6.901528042,0.7670193405929648,-3.4750595931054584,0.13286703036802117
6.911454042,0.8241558207616875,-3.436757133883539,0.16631093116791199
6.921380042,0.877694735380425,-3.3587032400937646,0.19036154452683698
6.931307042,0.9271868838858844,-3.2414154883524087,0.2050700742044741
6.941233042,0.972222698872674,-3.08583245203403,0.21057951161941552
6.951159042,1.0124345903845646,-2.893302940984431,0.20712088225207245
6.961085042,1.0474988132084888,-2.6655712219001466,0.19500896546870145
6.971011042,1.0771368696173749,-2.4047583170755122,0.17463750246896273
6.980937042,1.1011164538168854,-2.113339455808602,0.14647388526345534
6.990863042,1.119251942729907,-1.7941177503386323,0.11105330310266491
7.000790042,1.1314044426431396,-1.450194192314743,0.06897231212103576
7.010716042,1.1374814088564043,-1.0849341183659549,0.02088179311662379
7.020642042,1.1374358579708699,-0.7019303714064001,-0.0325207210359455
7.030568042,1.131265183824491,-0.3049634795244131,-0.09049932978517075
7.040494042,1.119009569260608,0.10204072587663075,-0.15228859452333582
7.050420042,1.1007499634638034,0.5150555398242918,-0.21710280369564758
7.060347042,1.0766055756091457,0.9299992757368266,-0.2841455307476951
7.070273042,1.0467308254597452,1.3427819832803143,-0.35261931008737285
7.080199042,1.0113116948715124,1.749352325503863,-0.42173521840150363
7.090125042,0.9705614442635658,2.14574393442732,-0.49072211666419335
7.100051042,0.9247156954753138,2.5281205634859054,-0.55883530005011
7.109977042,0.8740269341337231,2.89281936833742,-0.6253643230892373
7.119904042,0.8187585447179583,3.236391676117849,-0.6896398062076722
7.129830042,0.7591785514164374,3.555640647356465,-0.7510390782701221
7.139756042,0.6955532880186256,3.8476552924116536,-0.8089905647890994
7.149682042,0.6281412523707465,4.1098403728254835,-0.8629768898275516
7.159608042,0.5571874113626409,4.339941795212781,-0.9125367149111048
7.169534042,0.48291821257350653,4.536067189001845,-0.9572653853298808
7.179461042,0.40553753508092005,4.696701446763843,-0.9968144920785449
7.189387042,0.325223783172135,4.8207170940681054,-1.0308904870214826
7.199313042,0.24212830020326806,4.907379442206796,-1.0592525094660552
7.209239042,0.15637525925653847,4.956346559167669,-1.0817095943949888
7.219165042,0.0680631707910289,4.967664169003123,-1.0981174382086982
7.229091042,-0.02273187197161613,4.9417556551801765,-1.1083748993523053
7.239018042,-0.11595112135241177,4.87940739995219,-1.1124204092914198
7.248944042,-0.21154624115678458,4.78174974205284,-1.110228462565047
7.258870042,-0.30947054933747253,4.650233882810337,-1.1018063407054854
7.268796042,-0.4096685708537782,4.486605119289028,-1.0871912019068675
7.278722042,-0.5120641402140472,4.29287283399109,-1.06644763679069
7.288648042,-0.6165474003402679,4.071277723887714,-1.0396657531018019
7.298575042,-0.7229611413043536,3.824256805380722,-1.006959812412327
7.308501042,-0.8310869996929825,3.5544067833752897,-0.968467403669688
7.318427042,-0.9406320910718151,3.2644464184176374,-0.924349105263178
7.328353042,-1.0512166714046154,2.9571785618570425,-0.8747885623898007
7.338279042,-1.1623634168102277,2.6354525511969524,-0.8199928919915844
7.348205042,-1.2734888736443475,2.302127662516937,-0.7601933243012565
7.358132042,-1.3838975618499945,1.9600383008011335,-0.6956459988299104
7.368058042,-1.492779114683145,1.611961568925801,-0.6266328540667161
7.377984042,-1.5992087136520194,1.260587789152026,-0.5534625807911082
7.387910042,-1.7021509440822475,0.9084944575028394,-0.4764716376047909
7.397836042,-1.800467074238739,0.5581239972689653,-0.396025339872166
7.407762042,-1.8929256634701177,0.21176555391634713,-0.3125190225564613
7.417689042,-1.9782163335173004,-0.1284590480766375,-0.2263792469277512
7.427615042,-2.0549664836110644,-0.4606051758186032,-0.13806497946356242
7.437541042,-2.1217606849987,-0.7829111684885178,-0.04806862735977309
7.447467042,-2.1771624495763433,-1.0938001872824188,0.04308322219489044
7.457393042,-2.2197380310880908,-1.3918783614000059,0.13482953397118747
7.467319042,-2.2480818886090312,-1.6759295201941822,0.2265752049304209
7.477246042,-2.2608434215868085,-1.9449068643956375,0.31769225321435035
7.487172042,-2.256754571037138,-2.1979219887217014,0.4075219487784908
7.497098042,-2.2346578682624343,-2.4342317192536527,0.495377990041734
7.507024042,-2.1935344971666457,-2.653223268611818,0.5805508087311316
7.516950042,-2.13253191752223,-2.8543982407271278,0.6623130690222229
7.526876042,-2.0509905752047284,-3.037356037581774,0.739926408692477
7.536803042,-1.9484692038206877,-3.201777233567066,0.8126494384947875
7.546729042,-1.824768203819525,-3.3474074851791484,0.8797469679858091
7.556655042,-1.6799505742983267,-3.474042527462301,0.9405003697739981
7.566581042,-1.514359872865079,-3.581514768632216,0.9942189419075836
7.576507042,-1.3286346912358014,-3.669681930887566,1.0402520862156392
7.586433042,-1.1237191573972733,-3.738418103617022,1.0780020871860316
7.596360042,-0.9008690081089474,-3.7876074822594257,1.1069372474381611
7.606286042,-0.6616528195301042,-3.8171409692887956,1.1266051109955628
7.616212042,-0.40794804142878477,-3.8269157195047514,1.1366454868571196
7.626138042,-0.1419315531731204,-3.816837624554009,1.1368029758731724
7.636064042,0.1339354530875059,-3.7868266532031467,1.1269387038776681
7.645990042,0.41692835659369964,-3.736824893067655,1.10704096975053
7.655917042,0.7040857429943401,-3.6668070730633366,1.077234523855575
7.665843042,0.9922416542267771,-3.576793280614474,1.0377881986112918
7.675769042,1.278063193222983,-3.4668635219781514,0.9891206216924615
7.685695042,1.5580930994374251,-3.337173708303767,0.9318037576051735
7.695621042,1.8287967915351258,-3.1879725866543294,0.8665640466498279
7.705547042,2.0866132610227823,-3.0196190782411207,0.794280940115858
7.715474042,2.3280090961387314,-2.832599440270581,0.7159826646661083
7.725400042,2.5495348184209803,-2.6275436370085385,0.6328390861653375
7.735326042,2.7478826238583465,-2.4052402921829907,0.5461515845741124
7.745252042,2.9199445358549947,-2.1666495992535912,0.4573399000001471
7.755178042,3.062869900235079,-1.9129135878053896,0.3679259696671665
7.765104042,3.1741210886889837,-1.645363182388661,0.2795148486190356
7.775031042,3.251526235016064,-1.3655215444730442,0.19377289087481067
7.784957042,3.2933278173929987,-1.0751032612679003,0.11240345559578403
7.794883042,3.2982259264976252,-0.7760090413863854,0.03712048662200327
7.804812292,3.2654151258871464,-0.4703156988309563,-0.030379613319826495
7.814738292,3.1946139138739653,-0.1602613488250609,-0.08844733600527965
7.824664292,3.0860859268100618,0.15177410932266058,-0.13551013497525008
7.834591292,2.9406521739086386,0.46329299718022515,-0.1701026765279241
7.844517292,2.7596937607638967,0.7717079837886028,-0.1908967398574106
7.854443292,2.545144745739525,1.0743738392205822,-0.19673022861364128
7.864369292,2.299474983975923,1.3686222074331906,-0.18663474795884516
7.874295292,2.0256630453886597,1.6517986966487794,-0.15986119046707803
7.884221292,1.7271595345311481,1.9213015135988696,-0.11590276986330297
7.894148292,1.4078413746130123,2.1746208201814725,-0.0545149524420088
7.904074292,1.0719578287279476,2.409377967345688,0.02426823384302184
7.914000292,0.7240692081809631,2.6233637598024186,0.12012198426518995
7.923926292,0.3689793587173978,2.81457492439129,0.23242300538851596
7.933852292,0.011663123844278499,2.9812479923868627,0.36024664315065585
7.943778292,-0.34280993542483745,3.121889859503459,0.5023691077064093
7.953705292,-0.6893542305453797,3.235304354909793,0.6572749641144803
7.963631292,-1.022947881269644,3.320614230539533,0.8231699626236619
7.973557292,-1.338712127085821,3.3772780729323193,0.9979991805424938
7.983483292,-1.6319890598036175,3.4051017404420065,1.179470342266506
7.993409292,-1.8984163590529752,3.4042440375516207,1.365082078369137
8.003335292,-2.1339977681916595,3.375216453583708,1.5521567815508466
8.013262292,-2.3351681233810724,3.3188769131043654,1.7378776185296556
8.023188292,-2.4988518437965763,3.2364176069539665,1.9193291638035033
8.033114292,-2.6225139059998055,3.129347092790841,2.0935410346141254
8.043040292,-2.7042024591143665,2.9994669692281013,2.257533827703333
8.052966292,-2.7425823867217574,2.8488435361945124,2.4083665895495945
8.062892292,-2.736959282068887,2.6797749557559865,2.5431849953255874
8.072819292,-2.687293470498058,2.494754522761422,2.6592693704518964
8.082745292,-2.5942038827567617,2.2964307429305575,2.7540816641082353
8.092671292,-2.458961751760668,2.0875649947954087,2.825310477133578
8.102597292,-2.283474270785919,1.8709876162642354,2.870913257852803
8.112523292,-2.0702585100928883,1.649553300063278,2.8891548097118247
8.122449292,-1.8224060380475402,1.426096698412732,2.8786413065928835
8.132376292,-1.5435388278669908,1.2033891205733234,2.83834908822971
8.142302292,-1.237757149131884,0.984097154248002,2.7676476108683103
8.152228292,-0.9095802440699805,0.7707439546709675,2.6663160557516874
8.162154292,-0.5638806756657498,0.5656738318707895,2.5345532453013324
8.172080292,-0.2058133126685113,0.3710206418315973,2.37298067742847
8.182006292,0.15926001143988414,0.18868036779782235,2.18263865544112
8.191933292,0.5258490630140924,0.02028817612381376,1.9649756561040939
8.201859292,0.8884158382970396,-0.13279984892639446,1.7218312285694855
8.211785292,1.2414560598452022,-0.2695201481183479,1.4554128370070498
8.221711292,1.5795803184136805,-0.38911021312702504,1.1682671423448194
8.231637292,1.8975936406198803,-0.4911121438129353,0.8632462707541937
8.241563292,2.1905722884334162,-0.5753712323286537,0.5434696548758996
8.251490292,2.4539366453205456,-0.6420296316093581,0.21228207131911833
8.261416292,2.683519111646438,-0.6915152533493695,-0.12679146360813714
8.271342292,2.875626012858659,-0.72452615405595,-0.4700932460442969
8.281268292,3.027092613012444,-0.7420107917815645,-0.8138821725924875
8.291194292,3.1353304230749157,-0.7451446455975695,-1.1543840463401207
8.301121292,3.198366103107251,-0.7353037654859558,-1.4878421799634676
8.311047292,3.2148713844750603,-0.7140358579480797,-1.810567570058744
8.320973292,3.184183580586542,-0.6830295202199769,-2.1189879184067757
8.330899292,3.106316403610903,-0.6440822251912349,-2.409694796805746
8.340825292,2.981960951260804,-0.5990676385421615,-2.6794882953059624
8.350751292,2.81247686827714,-0.549902822155887,-2.9254185506963237
8.360678292,2.59987382276988,-0.4985158426901838,-3.1448236131058436
8.370604292,2.34678357028146,-0.44681426049288664,-3.3353631694531782
8.380530292,2.0564230093039813,-0.3966549228927203,-3.49504770371883
8.390456292,1.7325487601815939,-0.34981542993853726,-3.6222627371266993
8.400382292,1.3794039228640285,-0.30796758341745567,-3.715787857097387
8.410308292,1.0016577856527495,-0.2726530752964011,-3.7748103126904726
8.420235292,0.6043393650562598,-0.2452616228387492,-3.798933026777365
8.430161292,0.19276575420948347,-0.22701171620244048,-3.7881769519087194
8.440087292,-0.22753365868264946,-0.21893411017073947,-3.742977777502573
8.450013292,-0.6508959730104306,-0.22185816344819378,-3.6641770790851798
8.459939292,-1.0716053827850087,-0.23640110493034963,-3.5530080832821764
8.469865292,-1.4839744047497279,-0.2629602848632539,-3.411076302080662
8.479792292,-1.8824245195861933,-0.30170844834329796,-3.240335364034733
8.489718292,-2.261565034496547,-0.35259204772649666,-3.043058437026142
8.499644292,-2.6162690110892965,-0.41533258787166494,-2.8218056960203812
8.509570292,-2.941745155909425,-0.48943097285025683,-2.5793883389366346
8.519496292,-3.2336046411372066,-0.5741747948298535,-2.318829692874942
8.529422292,-3.48792190912907,-0.6686484761503293,-2.0433239806162873
8.539349292,-3.701288614579992,-0.7717461453276524,-1.7561933344336371
8.549275292,-3.8708599682585625,-0.8821870977823314,-1.4608436537729503
8.559201292,-3.9943928621645535,-0.9985336631497675,-1.160719908720899
8.569127292,-4.070275274961336,-1.1192112735645663,-0.8592614941515705
8.579053292,-4.097546578173939,-1.2425305015647632,-0.559858239267459
8.588979292,-4.075908488339844,-1.3667108122036142,-0.2658076713100427
8.598906292,-4.005726538288254,-1.4899057515608976,0.019725882574638233
8.608832292,-3.888022071899314,-1.6102292735311796,0.29374979743985247
8.618758292,-3.72445490049167,-1.7257828894155551,0.5534787375793102
8.628684292,-3.517296893707683,-1.8346833110487082,0.796366861370282
8.638610292,-3.269396910201475,-1.93509024727031,1.020136240712838
8.648536292,-2.984137599807835,-2.0252340035180456,1.2228011649347617
8.658463292,-2.6653847264803887,-2.1034425232630216,1.4026880765050134
8.668389292,-2.31742976913497,-2.168167497689366,1.5584509622435212
8.678315292,-1.944926655479997,-2.218009158369517,1.6890820941022018
8.688241292,-1.5528235717130432,-2.251739360010726,1.7939180747737244
8.698167292,-1.1462908680617,-2.268322560084359,1.8726411941283398
8.708093292,-0.7306461456702739,-2.266934311946087,1.9252761441416082
8.718020292,-0.31127766266059304,-2.2469769093789242,1.9521821767534158
8.727946292,0.10643276627455932,-2.208091853625742,1.9540408270067244
8.737872292,0.5171861846814121,-2.150168858229425,1.931839368485633
8.747798292,0.9158410350975505,-2.0733511609106414,1.8868502223709478
8.757724292,1.2974846634731492,-1.9780369732489895,1.8206066040486688
8.767651292,1.6575006738239781,-1.8648769659458952,1.7348747574229226
8.777577292,1.9916310905440266,-1.7347677584607664,1.6316231915999
8.787503292,2.296032377963458,-1.5888414562341948,1.5129893940089758
8.797429292,2.567324479332044,-1.428451355826138,1.381244546768965
8.807355,2.8026321685718876,-1.255154015914607,1.2387568179225599
8.817281,2.9996181536574884,-1.0706879663485707,1.0879538339059287
