Time (s),X (m/s^2),Y (m/s^2),Z (m/s^2)
9.005545208,0.2788921681782781,-0.17624756656264765,0.03345266428134884
9.015473208,0.4426704081911485,-0.03652295524251494,0.01788020016597111
9.025400208,0.6034800878397542,0.09992791746398202,0.0027634446270366265
9.035328208,0.7592896904091303,0.23096929478709377,-0.011425646054503916
9.045256208,0.9080995861117396,0.35458538080341223,-0.024241188423253637
9.055184208,1.047968669604986,0.4689173156012466,-0.03527418046687687
9.065111083,1.1770419520328608,0.5722968206596964,-0.04416229586198604
9.075039083,1.2935788699909385,0.6632758548510815,-0.05059840686349983
9.084967083,1.395981921421069,0.7406517228543652,-0.05433761299813638
9.094895083,1.4828250924504436,0.8034871779509484,-0.05520258913286813
9.104822083,1.5528814149402475,0.851125154595453,-0.05308710586255347
9.114750083,1.6051489025952175,0.8831978525919945,-0.04795762204168583
9.124678083,1.6388740592328541,0.8996299787763525,-0.039852908477311585
9.134606083,1.6535721372528034,0.900636040556824,-0.02888173399883697
9.144533083,1.649043346387812,0.8867116841339242,-0.015218724776619879
9.154461083,1.6253842713371716,0.8586191812886618,0.0009014161657816056
9.164389083,1.5829938508613857,0.8173672917993828,0.019191082716533345
9.174317083,1.5225733976175437,0.7641858615501793,0.0393180512299775
9.184244083,1.4451202916985524,0.700495656897166,0.06091458398795989
9.194172083,1.3519151539597178,0.6278740820727916,0.08358705683858751
9.204100083,1.2445024912751825,0.5480175753396116,0.10692582069063955
9.214028083,1.1246650010091515,0.4627016236245268,0.13051501105487512
9.223955083,0.9943919235220475,0.3737394602594106,0.15394202975072097
9.233883083,0.8558420349473853,0.2829405980430608,0.17680644405750018
9.243811083,0.7113020696543999,0.19207038424180709,0.19872808348866094
9.253739083,0.5631415411991674,0.102811737365584,0.2193541599132305
9.263666083,0.4137650789122942,0.016730139507556623,0.2383652863276432
9.273594083,0.2655635028681366,-0.06475717694849782,0.25548031841817004
9.283522083,0.12086491642740682,-0.1404070790047819,0.270459990742488
9.293450083,-0.01811289632283371,-0.2091708409511524,0.2831093662233353
9.303377083,-0.14930751459173713,-0.2702085355268336,0.29327916062714837
9.313305083,-0.2708531803397851,-0.3228973406777256,0.3008660378111584
9.323233083,-0.3811172635742064,-0.36683379639196456,0.3058119940848931
9.333160083,-0.47873092831102504,-0.40183023320316785,0.3081029613454154
9.343088083,-0.5626131878322284,-0.4279057584406208,0.3077667594471331
9.353016083,-0.631987720888545,-0.44527232482363166,0.3048705196894058
9.362944083,-0.6863920285980339,-0.45431651906805,0.2995176874865852
9.372871083,-0.725678737792566,-0.455577798662144,0.2918446993678915
9.382799083,-0.7500090928741693,-0.44972397597122943,0.2820174208679233
9.392727083,-0.7598389180679516,-0.4375248009167143,0.2702274271263722
9.402655083,-0.7558975685072055,-0.4198245230437893,0.2566882056553799
9.412582083,-0.7391606137311014,-0.3975143149721048,0.24163135899178936
9.422510083,-0.7108172007798353,-0.371505408168407,0.2253028801204085
9.432438083,-0.6722332145320179,-0.3427037294402878,0.20795956125508155
9.442366083,-0.6249114789613027,-0.3119867369409014,0.1898655751929057
9.452293083,-0.570450315823379,-0.2801830434896369,0.1712892403703083
9.462221083,-0.5105017921692697,-0.2480552882742984,0.1524999512416734
9.472149083,-0.4467309447945202,-0.21628658100575593,0.13376523125366566
9.482077083,-0.3807771721412828,-0.185470700865671,0.11534785172608425
9.492004083,-0.31421883879783546,-0.15610609138327258,0.09750295832842688
9.501932083,-0.24854195222849712,-0.12859355626960176,0.08047515720948464
9.511860083,-0.1851135545206023,-0.10323743393399101,0.06449553313792673
9.521788083,-0.1251602357180058,-0.0802499130468691,0.049778596357779904
9.531715083,-0.06975193647808162,-0.05975805135429463,0.03651917442954555
9.541643083,-0.019790986109321486,-0.04181297872968953,0.024889275552168435
9.551571083,0.02399386524066047,-0.02640070666940255,0.015034955155990026
9.561499083,0.061048805369363864,-0.0134539323606289,0.007073226020309476
9.571426083,0.09099219598539465,-0.0028642173260275505,0.0010890676380735547
9.581354083,0.11360823660469334,0.005506060195050815,-0.0028673879927247478
9.591282083,0.12883764163264477,0.01181253225112508,-0.004783391858482591
9.601210083,0.1367659249213922,0.016218924854143356,-0.004685707504236467
9.611137083,0.13760987374233108,0.018888775113015954,-0.0026421898733273064
9.621065083,0.13170276537773704,0.019979039600122782,0.0012373350096205069
9.630993083,0.11947883889884839,0.019635722239162434,0.006801027178260909
9.640920083,0.10145748389598978,0.017991519994572203,0.01385594525733331
9.650848083,0.07822754629779999,0.015165365843400485,0.022170010998198462
9.660776083,0.050432079083716726,0.011263652118358931,0.0314750972081126
9.670704083,0.018753786397947076,0.006382849861414243,0.04147127766755267
9.680631083,-0.01609866971496066,0.0006132005550494534,0.051832234687614685
9.690559083,-0.05340340268014773,-0.005956861061521121,0.06221176893116691
9.700487083,-0.0924370367200776,-0.01323589829982971,0.07225130191855714
9.710415083,-0.13248544911072185,-0.021124618546672722,0.08158820895497751
9.720342083,-0.17285355075050954,-0.02951130271702071,0.08986477256414495
9.730270083,-0.21287414812051267,-0.038267825896463215,0.09673750669251394
9.740198083,-0.2519159302536501,-0.04724654409452174,0.10188657136797068
9.750126083,-0.2893906168632409,-0.056278276161442965,0.10502497519859891
9.760053083,-0.32475928999044845,-0.06517155342580878,0.10590724753718278
9.769981083,-0.35753791226669923,-0.0737132474829939,0.10433725452819574
9.779909083,-0.3873020122285461,-0.08167062333407288,0.10017483807755216
9.789837083,-0.4136904962829168,-0.08879480300753834,0.09334097877632208
9.799764083,-0.43640853513765976,-0.09482556505703607,0.0838212248193524
9.809692083,-0.4552294745080966,-0.0994973498895242,0.07166718740633352
9.819620083,-0.46999573382247595,-0.10254629240445912,0.0569959755179619
9.829548083,-0.4806186747240458,-0.1037180634115666,0.03998752520915768
9.839475083,-0.4870774354856454,-0.1027762687792441,0.0208798662847343
9.849403083,-0.4894167360841014,-0.0995111275791216,-3.754162832010258e-05
9.859331083,-0.4877436665875522,-0.0937481255375553,-0.02243218481071975
9.869259083,-0.48222348554914085,-0.08535631823245296,-0.045938284540443346
9.879186083,-0.47307447830260446,-0.0742559425146265,-0.07016763405903982
9.889114083,-0.46056195477890655,-0.06042498859116011,-0.0947210670521656
9.899042083,-0.44499149647501696,-0.04390439294339674,-0.11920010763182932
9.908969083,-0.4267015864407906,-0.024801536684044674,-0.14321833690200805
9.918897083,-0.40605577201443094,-0.0032917769052873253,-0.16641201889969484
9.928825083,-0.3834345190981393,0.02038219887970971,-0.1884495626787362
9.938753083,-0.35922692241525755,0.04591332260069474,-0.20903945695043674
9.948680083,-0.33382244102759506,0.07293542626340842,-0.22793639357501336
9.958608083,-0.3076028336522291,0.10103076521371593,-0.24494538896323187
9.968536083,-0.2809344742791297,0.12973957605922865,-0.25992381185266444
9.978464083,-0.2541612342580702,0.15857134743250695,-0.2727813275660389
9.988391083,-0.22759811959157683,0.1870173859650195,-0.2834778688095825
9.998319083,-0.20152584752644512,0.2145641920291201,-0.2920198362723926
10.00824708,-0.1761865307668803,0.24070712540537648,-0.2984548125503749
10.01817508,-0.15178060856636633,0.26496384038459486,-0.30286513415415794
10.02810208,-0.12846512195880197,0.2868869995551784,-0.3053607037161315
10.03803008,-0.10635337830348425,0.3060758300883338,-0.30607143527927805
10.04795808,-0.08551599270074949,0.3221861587792731,-0.30513971013709856
10.05788608,-0.06598323572902849,0.33493864500122433,-0.3027131828944201
10.06781383,-0.04774856278567789,0.34412501732602024,-0.29893822373437684
10.07774183,-0.03077315341106766,0.3496122045153617,-0.2939542215919353
10.08766983,-0.014991251340481859,0.35134433088660555,-0.2878889124641245
10.09759683,-0.00031606814717565623,0.3493426166801314,-0.28085484259844345
10.10752483,0.013354005146121149,0.34370328383450965,-0.2729470268760368
10.11745283,0.026129142802029076,0.3345936152204683,-0.2642418130687738
10.12738083,0.03812204660288515,0.3222463503117359,-0.2547969088046266
10.13730783,0.04944236883457157,0.30695262259766554,-0.2446524718411292
10.14723583,0.06019180496093576,0.28905365519107173,-0.23383311360395456
10.15716383,0.07046001628372976,0.26893143412936393,-0.22235063130122462
10.16709183,0.0803214871393592,0.24699857766418531,-0.2102072716651021
10.17701883,0.08983336858874975,0.22368761801809522,-0.1973993368352362
10.18694683,0.09903431868069104,0.19943991324958343,-0.18392096001429467
10.19687483,0.10794431871237703,0.17469441465781302,-0.1697678957541244
10.20680283,0.11656542030136208,0.14987653146603624,-0.15494118449381947
10.21672983,0.12488335427251028,0.12538735698375025,-0.1394505661143511
10.22665783,0.13286990818795316,0.10159354229824083,-0.1233175342780148
10.23658583,0.14048595729432004,0.0788181166435246,-0.10657793875223164
10.24651383,0.14768501640164358,0.05733255227110384,-0.0892840521725114
10.25644083,0.15441716776752443,0.037350354492738616,-0.0715060208824805
10.26636883,0.16063321003621595,0.019022426242838276,-0.05333262205267863
10.27629683,0.16628886347553437,0.0024344131999726026,-0.0348712574759205
10.28622483,0.17134885768005811,-0.012393818615658173,-0.016247131455920938
10.29615183,0.17579072344717772,-0.025506485487259648,0.00239841428173161
10.30607983,0.17960811624960202,-0.03700795668685675,0.020910404572314405
10.31600783,0.18281351817776692,-0.04705666611778774,0.0391235369341665
10.32593583,0.18544019630781886,-0.05585703097363135,0.056866222366752144
10.33586283,0.18754333025020153,-0.06364963920831108,0.07396526555313072
10.34579083,0.18920025103287458,-0.07070005683987973,0.09025106212519227
10.35571883,0.19050975351368676,-0.07728667878409813,0.10556316021913903
10.36564583,0.19159045936324007,-0.08368809598355084,0.11975599706207288
10.37557383,0.19257822647996264,-0.09017047479933508,0.1327045819678783
10.38550183,0.19362263105057279,-0.09697544310220224,0.14430986498384052
10.39542983,0.1948825917671387,-0.10430895332384867,0.15450351705686083
10.40535683,0.1965212576644731,-0.1123315476504723,0.16325185845047338
10.41528483,0.1987003348885814,-0.12115038629373476,0.17055870451208685
10.42521283,0.20157407656660883,-0.1308133192879353,0.1764669446831956
10.43514083,0.20528319718497698,-0.1413051905223089,0.181058724976501
10.44506783,0.20994899209944137,-0.15254646637312505,0.18445416159469083
10.45499583,0.2156679391254248,-0.1643941873024872,0.18680857257664069
10.46492383,0.22250703146618425,-0.17664515515357504,0.18830827595488797
10.47485183,0.2305000433953428,-0.18904119613156548,0.18916506669385177
10.48477883,0.2396448700602707,-0.20127628245229356,0.189609547293221
10.49470683,0.24990202010680898,-0.21300525505722007,0.18988354241408972
10.50463483,0.2611942828704462,-0.22385386368738772,0.19023187045795642
10.51456283,0.273407545171013,-0.23342982475714077,0.19089377157516685
10.52448983,0.28639269632474945,-0.24133458709563615,0.19209430183532736
10.53441783,0.2999685311151658,-0.2471754876723767,0.19403599837044752
10.54434583,0.3139255361972231,-0.25057797377098756,0.19689110158323161
10.55427283,0.32803042408233063,-0.2511975670010123,0.20079459034399827
10.56420083,0.34203126043520843,-0.24873125115859163,0.20583824880356094
10.57412883,0.3556630163551423,-0.24292798269874982,0.21206594387218436
10.58405683,0.36865336978524016,-0.23359805004414338,0.21947025282408428
10.59398383,0.3807285807719162,-0.22062104404014857,0.22799054009192296
10.60391183,0.391619273857223,-0.2039522419708324,0.23751254022260948
10.61383983,0.4010659756389269,-0.18362724639834274,0.24786946115865674
10.62376783,0.4088242743969679,-0.15976475472467125,0.2588445799936582
10.63369483,0.4146694907806102,-0.13256736720993686,0.2701752624864483
10.64362283,0.4184007741528737,-0.10232037510305521,0.28155829789379644
10.65355083,0.41984456817460336,-0.06938851138072928,0.292656403518694
10.66347883,0.4188574198549503,-0.03421069556330763,0.3031057219164628
10.67340583,0.4153281356506677,0.0027071422156356166,0.3125241111747874
10.68333383,0.4091793132073809,0.040801020235197605,0.32052001623894183
10.69326183,0.40036829538959084,0.0794594635950445,0.32670170521079805
10.70318983,0.3888876023256535,0.11803544075095129,0.33068665592663155
10.71311683,0.3747648964183986,0.15585942703777983,0.3321108831091159
10.72304483,0.35806252566542596,0.19225331962608314,0.3306380052915551
10.73297283,0.3388766753415717,0.226544907495355,0.32596786459424165
10.74289983,0.31733614160997553,0.2580825817855003,0.31784453115009215
10.75282783,0.2936007271559181,0.2862499565883957,0.306063545299567
10.76275583,0.2678592508232231,0.31048005912970156,0.2904782711653853
10.77268383,0.24032716056377904,0.3302687430632842,0.27100525232874756
10.78261083,0.21124374054060285,0.3451869809399905,0.24762847392896406
10.79253883,0.18086890763877408,0.35489170362885203,0.22040244721777255
10.80246683,0.1494795991843255,0.3591348776412641,0.18945404371001393
10.81239483,0.11736576184012329,0.35777054755584303,0.15498301658062097
10.82232183,0.08482596063929121,0.350759620057947,0.11726115692472185
10.83224983,0.052162636466668515,0.3381722264509969,0.07663004388368536
10.84217783,0.019677051506370842,0.3201875684206663,0.03349736374665613
10.85210583,-0.012336021091665473,0.29709122366032964,-0.011668204094409987
10.86203283,-0.04359378164608308,0.2692699608811519,-0.05834350778637016
10.87196083,-0.0738309474843517,0.237204185976341,-0.1059587910853346
10.88188883,-0.10280520498792092,0.2014582108159192,-0.15390681459254169
10.89181683,-0.1303023893758103,0.16266859981461582,-0.20155309951538325
10.90174383,-0.15614119286837358,0.12153090209509339,-0.24824712727417994
10.91167183,-0.18017719737542698,0.07878511480934489,-0.2933342941557274
10.92159983,-0.20230603667194114,0.03520024538032441,-0.3361683889260579
10.93152683,-0.22246551263366485,-0.00844165053756329,-0.37612433362779574
10.94145483,-0.2406365179955579,-0.05136157981962646,-0.41261090519215066
10.95138283,-0.2568426530888278,-0.0927995055318646,-0.44508314007851885
10.96131083,-0.2711484664177209,-0.13202967481152109,-0.4730541178136166
10.97123783,-0.2836562995158807,-0.16837505555720536,-0.4961058231523963
10.98116583,-0.29450177513101744,-0.20122058470066317,-0.5138988007113955
10.99109383,-0.3038480324489737,-0.23002496363341665,-0.5261803395673695
11.00102183,-0.3118788796291325,-0.25433077456614117,-0.5327909574714277
11.01094883,-0.3187910964806877,-0.27377273612167047,-0.5336689941544336
11.02087683,-0.3247861723986964,-0.28808396707911893,-0.5288531695357103
11.03080483,-0.3300618019346306,-0.2971001818835772,-0.5184830133179902
11.04073283,-0.3348034805725624,-0.30076179680656323,-0.5027971244954876
11.05065983,-0.33917654683945997,-0.2991139774401681,-0.4821292702309405
11.06058783,-0.34331900510465446,-0.2923047030142402,-0.4569023825488714
11.07051533,-0.3473354371289075,-0.2805809584592023,-0.42762055928388637
11.08044233,-0.3512922697696274,-0.26428318989273314,-0.3948592240552028
11.09037033,-0.35521461156549444,-0.2438381729531779,-0.35925364844343805
11.10029833,-0.3590848038244364,-0.21975044739699717,-0.32148608535354106
11.11022633,-0.3628427561621096,-0.19259246923866838,-0.2822718019742714
11.12015333,-0.36638805813346953,-0.16299362868884548,-0.24234433085238455
11.13008133,-0.36958378407872217,-0.1316282828062648,-0.20244027727144895
11.14000933,-0.3722618425402033,-0.09920295819353186,-0.16328403085389256
11.14993733,-0.37422966750127745,-0.0664428910652333,-0.12557273029976943
11.15986433,-0.3752780073326162,-0.03407808860693492,-0.08996182329453153
11.16979233,-0.37518953809544847,-0.0028291157647276377,-0.05705154891307324
11.17972033,-0.373748008714877,0.026607165760004294,-0.027374647233560038
11.18964833,-0.370747613922101,0.053571656706964475,-0.0013855712434912965
11.19957533,-0.3660022846302332,0.07745660846644985,0.020548558325494425
11.20950333,-0.35935458337006676,0.09771845867248105,0.038155051175765155
11.21943133,-0.3506838944596276,0.11388962990274662,0.051260631545530504
11.22935933,-0.3399136055183236,0.12558901437119258,0.0597941789076778
11.23928633,-0.3270169901625755,0.13253088174535438,0.06378713731021281
11.24921433,-0.3120215231875572,0.1345319650949506,0.06337155455186787
11.25914233,-0.29501139216993305,0.13151650007332416,0.058775772721304985
11.26907033,-0.2761280172081174,0.12351901672752671,0.050317863521493256
11.27899733,-0.25556845719069177,0.11068471642270764,0.03839698124739715
11.28892533,-0.23358166735888033,0.09326731365175556,0.02348288523214293
11.29885333,-0.21046267446181474,0.07162428807060972,0.006103951937125725
11.30878033,-0.18654484234581023,0.04620957628592305,-0.013165954454804238
11.31870833,-0.16219049923620163,0.017563830282148543,-0.033721360244065246
11.32863633,-0.13778027679795835,-0.013697531039130682,-0.05493941716942887
11.33856433,-0.11370156479570509,-0.04689816190838638,-0.07619412185741917
11.34849133,-0.09033651513756712,-0.08131613798451064,-0.09687017866908909
11.35841933,-0.06805004028004484,-0.11620038600004322,-0.1163762006586076
11.36834733,-0.047178248000121874,-0.15078774651236757,-0.1341569805092567
11.37827533,-0.028017739662556287,-0.1843202176836104,-0.14970460163095567
11.38820233,-0.010816172286891565,-0.216061938472595,-0.16256819984886695
11.39813033,0.004235555728447276,-0.2453154938827152,-0.17236222793008663
11.40805833,0.0170091918576479,-0.27143716317124317,-0.17877311664012233
11.41798633,0.02744286052217964,-0.2938507822374969,-0.18156426468050368
11.42791333,0.035542499944795726,-0.31205994868000786,-0.18057932458293477
11.43784133,0.04138097032801558,-0.32565835522702347,-0.17574378321883175
11.44776933,0.04509490719131499,-0.3343380874983298,-0.16706486554833402
11.45769633,0.04687949665633814,-0.33789576046563924,-0.15462981891467803
11.46762433,0.046981436675837304,-0.3362363932216876,-0.13860266115052414
11.47755233,0.045690411812031276,-0.3293749369085603,-0.11921949727477751
11.48748033,0.04332944673556249,-0.3174353832877148,-0.09678252675100384
11.49740733,0.040244518209912976,-0.30064740121948824,-0.07165287851309453
11.50733533,0.03679380234095735,-0.2793404841359343,-0.04424242682359402
11.51726333,0.033336917306640304,-0.2539356480884782,-0.015004758098399936
11.52719133,0.030224493154338818,-0.22493479600797622,0.015574524699684053
11.53711833,0.027788360254100544,-0.19290795341432873,0.046987960612726
11.54704633,0.026332598561359437,-0.15847867500199242,0.07871664594236914
11.55697433,0.02612563484050969,-0.12230801004634069,0.11024070016320744
11.56690233,0.02739351959615199,-0.08507748743044698,0.14104958227674955
11.57682933,0.030314465059888936,-0.04747163074866531,0.1706520660654939
11.58675733,0.03501468482604461,-0.010160537316585278,0.19858569157084677
11.59668533,0.041565547385516745,0.026216946600521547,0.22442551802884983
11.60661233,0.04998203962013064,0.06106894481059552,0.24779201122164402
11.61654033,0.060222528755450304,0.09386469577045475,0.2683579078091069
11.62646833,0.07218980698056521,0.12414671106295581,0.2858539130539092
11.63639633,0.08573339702483805,0.1515406079488359,0.3000731082439585
11.64632333,0.10065308617590449,0.1757623601421662,0.3108739710103738
11.65625133,0.11670363898468274,0.19662280270827098,0.31818194579697207
11.66617933,0.13360061545107393,0.21402932131905178,0.3219895418674756
11.67610733,0.15102719367071357,0.22798474839736937,0.32235497953194
11.68603433,0.16864186631563335,0.2385835754135399,0.31939944780470225
11.69596233,0.18608685133979297,0.24600566902762944,0.3133030753736161
11.70589033,0.2029970310772009,0.2505077466007767,0.30429974997414494
11.71581833,0.2190092119937095,0.25241292203873117,0.2926709479300634
