Time (s),Acceleration x (m/s^2),Acceleration y (m/s^2),Acceleration z (m/s^2)
10.00455547,19.47039795,-15.99841213,-6.178267956
10.00931031,19.01815414,-15.99601936,-5.694917679
10.01406516,17.24746513,-15.65623856,-4.61814785
10.01881995,15.28056526,-15.2973156,-3.462414265
10.02357479,13.95972729,-14.95514107,-2.624926329
10.02832964,12.52642632,-14.54357624,-2.378465652
10.03308448,10.00917721,-13.92144203,-3.196810961
10.03783932,7.008577347,-13.21795273,-5.070391178
10.04259417,4.759324074,-12.85902882,-7.448856831
10.04734901,3.7256248,-12.40917778,-8.475378036
10.05210385,3.034099102,-11.56690502,-7.757531166
10.0568587,2.416750908,-10.78445148,-5.960521221
10.06161349,2.569891453,-10.04267693,-2.275574446
10.06636833,3.632304668,-9.659825325,1.607976794
10.07112318,3.881158352,-9.391828537,3.665804386
10.07587802,3.421736479,-9.042476654,4.596612453
10.08063286,2.579462767,-8.657232285,4.967499733
10.08538771,1.612762451,-8.078168869,4.816751957
10.09014255,0.9451649189,-7.738388538,4.319045067
10.0948974,0.1938186288,-7.546962738,3.857230186
10.09965224,-0.390030086,-7.434499741,3.416950703
10.10440703,-0.6652047038,-7.345965385,3.086741209
10.10916188,-0.9619147182,-7.192824841,2.778067112
10.11391672,-1.373480201,-7.125825882,2.421536446
10.11867156,-1.701296926,-7.372286797,2.002792597
10.12342641,-1.756331801,-7.680960655,1.55054903
10.12818125,-1.600798368,-8.035098076,0.9810572863
10.13293609,-1.457229018,-8.451449394,0.3469592929
10.13769094,-1.40697968,-8.879764557,-0.1076770201
10.14244578,-1.605584025,-9.422935486,-0.366101861
10.14720057,-1.552941918,-10.02114105,-0.5527420044
10.15195542,-1.316052437,-10.65763187,-0.7800601721
10.15671026,-1.162911773,-11.22473145,-1.05523479
10.1614651,-1.270588875,-11.81815147,-1.093519926
10.16621995,-1.543370605,-12.37089348,-1.012163997
10.17097479,-2.203789711,-12.88056469,-0.4833501875
10.17572964,-2.727817774,-13.31127262,-0.007178467698
10.18048448,-3.285345554,-13.67976665,0.5838487148
10.18523932,-3.18006134,-14.06740475,1.296909928
10.18999411,-2.411965132,-14.1870451,2.218146563
10.19474896,-1.655833244,-13.96690559,3.081955671
10.1995038,-1.127019525,-13.52662659,3.854837179
10.20425865,-0.9738788009,-12.94277763,4.469792843
10.20901349,-1.122233868,-12.24646664,4.979464054
10.21376833,-1.533799291,-11.48076344,5.357530117
10.21852318,-1.976471543,-10.77488041,5.589633465
10.22327802,-2.323430777,-10.14796066,5.709274769
10.22803286,-2.495713949,-9.580862045,5.735595703
10.23278766,-2.177468538,-9.085547447,5.469992638
10.2375425,-1.861616015,-8.671588898,5.072783947
10.24229734,-1.782652855,-8.298309326,4.630111694
10.24705219,-1.782652855,-7.970492363,4.311866283
10.25180703,-1.734796405,-7.747959614,4.285545349
10.25656188,-1.457229018,-7.719245911,4.359723091
10.26131672,-1.098305583,-7.800601959,4.402793884
10.26607156,-0.7776673436,-7.853243828,4.34775877
10.27082641,-0.5383850932,-7.982456207,4.259224415
10.27558125,-0.5072783828,-8.109275818,4.134797573
10.28033604,-0.394815743,-8.195417404,3.883551121
10.28509088,-0.1890329868,-8.33180809,3.519842148
10.28984573,0.0,-8.427521706,3.115455151
10.29460057,0.09092725813,-8.628518105,2.713460922
10.29935542,0.2943171859,-8.800801277,2.27078867
10.30411026,0.4977070987,-8.896514893,1.95015049
10.3088651,0.6005984545,-9.047262192,1.758724689
10.31361995,0.6317051649,-9.145368576,1.648654819
10.31837479,0.6221339107,-9.243474007,1.629512191
10.32312964,0.5599204898,-9.3367939,1.706082582
10.32788443,0.5120640397,-9.422935486,1.780260086
10.33263927,0.5647061467,-9.51386261,1.677368641
10.33739411,0.6436693072,-9.578469276,1.538584948
10.34214896,0.9020941257,-9.633503914,1.509871125
10.3469038,1.26341033,-9.724431038,1.545763373
10.35165865,1.701296926,-9.781859398,1.603191137
10.35641349,2.0769701,-9.760323524,1.672582984
10.36116833,2.457428932,-9.738788605,1.765903115
10.36592318,2.584248543,-9.623932838,1.926222205
10.37067802,2.699103832,-9.585647583,1.926222205
10.37543281,2.811566591,-9.607182503,1.8855443
10.38018766,2.98863554,-9.628718376,1.837687731
10.3849425,3.120240688,-9.623932838,1.904686809
10.38969734,3.345165968,-9.678967476,1.864008784
10.39445219,3.610769272,-9.700503349,1.734796405
10.39920703,3.806980848,-9.789037704,1.509871125
10.40396188,3.9625144,-9.8201437,1.239482164
10.40871672,4.079762459,-9.918250084,1.002592683
10.41347156,4.127619267,-10.01874828,0.8398807645
10.41822641,4.15633297,-10.14078236,0.6915257573
10.4229812,4.177868366,-10.3776722,0.6005984545
10.42773604,4.28315258,-10.61695385,0.4139583111
10.43249088,4.522434711,-10.88973618,0.4474578202
10.43724573,4.993820667,-11.2510519,-0.7465606928
10.44200057,7.41535759,-12.04307652,-8.642875671
10.44675542,10.82991505,-12.19861031,-15.38106441
10.45151026,12.662817,-11.58604717,-16.21137428
10.4562651,12.26082325,-10.82512951,-13.47398472
10.46101995,10.45424175,-9.992427826,-8.772088051
10.46577479,7.893921852,-9.133403778,-3.290131092
10.47052964,6.171089649,-8.499305725,0.5503492355
10.47528443,5.481956482,-8.015955925,2.629712105
10.48003927,5.553741455,-7.633104324,3.637090445
10.48479411,5.931807518,-7.372286797,3.94815731
10.48954896,6.343372822,-7.08036232,3.897907972
10.4943038,6.640082836,-6.776473522,3.754338741
10.49905865,6.793223381,-6.477370739,3.582055569
10.50381349,6.788437843,-6.092126369,3.383451223
10.50856833,6.721438885,-5.704489231,3.160918713
10.51332318,6.647261143,-5.326423168,3.050848961
10.51807802,6.501298904,-5.094319344,3.000599623
10.52283281,6.407979012,-4.972285271,3.160918713
10.52758766,6.419943333,-5.020142078,3.617947817
10.5323425,6.448657036,-5.20917511,4.256831646
10.53709734,6.336194515,-5.661418438,4.833501816
10.54185219,6.269195557,-6.374479294,5.367101192
10.54660703,6.443871498,-7.33639431,5.958128452
10.55136188,6.934400082,-8.432307243,6.37687254
10.55611672,7.628318787,-9.501898766,6.60419035
10.56087156,8.283951759,-10.51645565,6.709474564
10.56562641,8.886942863,-11.413764,6.747759819
10.5703812,9.279366493,-12.19382381,6.704689026
10.57513604,9.456435204,-12.87099266,6.508477688
10.57989089,9.509077072,-13.40937805,6.151947021
10.58464573,9.358329773,-13.80897903,5.599205017
10.58940057,9.037691116,-14.00519085,4.819144726
10.59415542,8.528019905,-13.87597847,3.840480328
10.59891026,7.716853142,-13.58644676,2.11046958
10.6036651,5.089533806,-13.84965706,-19.49671936
10.60841995,3.215953588,-14.84267902,-31.91068268
10.61317479,4.110869408,-14.78046513,-18.91287041
10.61792964,5.254638672,-14.02433395,-3.6299119
10.62268448,6.099305153,-13.24188042,2.971885681
10.62743927,6.74536705,-12.45703506,4.65403986
10.63219411,7.441678524,-11.66501045,4.163511276
10.63694896,8.329415321,-11.00459099,1.852044702
10.6417038,9.437292099,-10.47817039,-2.565105915
10.64645865,10.46381378,-10.16710377,-7.530212879
10.65121349,10.87537861,-9.949356079,-8.532805443
10.65596833,10.41117096,-9.64068222,-4.912465096
10.66072318,9.583254814,-9.260223389,-0.94277215
10.66547802,8.640482903,-8.884550095,1.280160069
10.67023286,8.003992081,-8.714659691,1.93340075
10.67498766,7.597211838,-8.817551613,1.612762451
10.6797425,6.989434719,-9.162117958,1.081555843
10.68449734,6.065805435,-9.674181938,0.7106683254
10.68925219,5.060820103,-10.3776722,0.4498506486
10.69400703,4.175475597,-11.16251755,0.2967100143
10.69876188,3.582055569,-11.97368431,0.2273181528
10.70351672,3.259024382,-12.82792187,0.2679961324
10.70827156,3.235096216,-13.78505135,0.3996013701
10.71302641,3.328416348,-14.96949863,0.2823530734
10.71778125,3.474378586,-16.23530197,0.1411765367
10.72253609,3.591626883,-17.56571198,-0.04546362907
10.72729088,3.66101861,-18.91526222,-0.1028913707
10.73204573,3.550948858,-20.32702827,-0.1818545163
10.73680057,3.371487141,-21.54258156,-0.3326023519
10.74155542,3.017349243,-22.53081894,-0.6388836503
10.74631026,2.428714991,-23.42334175,-0.9738788009
10.7510651,1.210768223,-24.16272354,-1.213161111
10.75581995,-0.1220339537,-24.58146667,-1.469193101
10.76057479,-1.782652855,-24.56950378,-2.019542217
10.76532964,-4.223331928,-23.89472771,-3.014956474
10.77008448,-6.518048763,-22.20778656,-4.029513359
10.77483932,-6.86022234,-19.92981911,-4.048655987
10.77959411,-5.694917679,-17.5441761,-2.897708178
10.78434896,-4.484149456,-15.41456318,-0.9690931439
10.7891038,-3.680161238,-13.92862034,1.110269666
10.79385865,-3.306880951,-12.99063396,2.706282377
10.79861349,-3.156133175,-12.63649654,3.591626883
10.80336833,-2.842673302,-12.26800156,4.029513359
10.80812318,-2.354537487,-11.94257736,3.873979807
10.81287802,-1.696511269,-11.57169056,3.455235958
10.81763286,-1.155733347,-11.01894855,3.072384357
10.82238771,-0.7274180651,-10.36810017,2.766103029
10.8271425,-0.409172684,-9.645467758,2.500499725
10.83189734,-0.1746760458,-8.915657043,2.158325911
10.83665219,-0.04785645381,-8.080561638,2.026720762
10.84140703,0.3086741269,-7.190432072,1.732403636
10.84616188,0.813559711,-6.125626087,0.7800601721
10.85091672,1.191625714,-5.228317261,-0.2847459018
10.85567156,1.698904037,-4.577469826,-1.517049551
10.86042641,2.232503414,-4.019941807,-2.409572363
10.86518125,2.751745939,-3.656233072,-2.866601467
10.86993609,3.215953588,-3.452843189,-2.756531715
10.87469094,3.680161238,-3.426522017,-2.215753794
10.87944573,4.326223373,-3.491128206,-1.584048629
10.88420057,4.934000492,-3.708875179,-1.033699393
10.88895542,5.510670662,-3.862015724,-0.4474578202
10.89371026,6.037091732,-4.039084435,-0.06221338734
10.8984651,6.163911343,-4.242474556,0.2632105052
10.90321995,5.979663849,-4.467400074,0.5288137794
10.90797479,5.460421085,-4.680361271,0.7752745152
10.91272964,4.491328239,-4.905286312,0.9355936646
10.91748448,3.326023579,-5.14456892,1.045663476
10.92223932,2.304288149,-5.40060091,1.196411371
10.92699417,1.421336651,-5.577669621,1.356730461
10.93174896,0.6005984545,-5.682953835,1.495514154
10.9365038,-0.02871387079,-5.706882,1.564906001
10.94125865,-0.4977070987,-5.740381718,1.500299811
10.94601349,-0.8685946465,-5.776273727,1.368694544
10.95076833,-1.265803218,-5.824130535,1.141376376
10.95552318,-1.569691658,-5.8983078,0.890130043
10.96027802,-1.873580098,-5.986842155,0.7154539824
10.96503286,-2.108076811,-6.032305717,0.6149554253
10.96978771,-2.419143677,-6.034698486,0.5838487148
10.97454255,-2.713460922,-6.025127411,0.5599204898
10.9792974,-2.964707375,-6.015556335,0.471386075
10.98405219,-3.192025423,-5.960521221,0.35174492
10.98880703,-3.390629768,-5.88395071,0.2488535494
10.99356188,-3.349951744,-5.783452511,0.2344966233
10.99831672,-3.326023579,-5.64227581,0.1746760458
11.00307156,-3.182454109,-5.594419479,0.09810572863
11.00782641,-3.101098061,-5.496313572,-0.1052841991
11.01258125,-3.041277647,-5.414957523,-0.380458802
11.01733609,-2.902493954,-5.369493961,-0.6412764788
11.02209094,-2.837887764,-5.312066078,-0.8638089895
11.02684578,-2.854637384,-5.230710506,-1.19880414
11.03160063,-2.811566591,-5.182853699,-1.485942841
11.03635542,-2.940778971,-5.197210789,-1.988435626
11.04111026,-3.115455151,-5.30728054,-2.675175667
11.0458651,-3.304488182,-5.594419479,-3.503092289
11.05061995,-3.30927372,-6.130411625,-4.740181446
11.05537479,-2.254039049,-6.893722057,-6.185446739
11.06012964,-0.650847733,-7.76949501,-7.479963779
11.06488448,1.004985452,-8.614161491,-8.039883614
11.06963932,2.467000246,-9.31525898,-7.475177765
11.07439417,3.471985579,-9.267401695,-6.104090691
11.07914901,4.185046673,-8.592626572,-4.436293125
11.0839038,4.984249592,-7.948956966,-2.926422119
11.08865865,5.931807518,-7.446464062,-1.19880414
11.09341349,6.802794933,-7.097112179,1.074377418
11.09816833,7.688138962,-6.960721016,4.180261135
11.10292318,8.805587769,-7.214360237,7.676175117
11.10767802,10.17428207,-8.032705307,11.1936245
11.11243286,12.16750336,-9.394221306,14.51725483
11.11718771,15.02931881,-11.23190975,16.31187248
11.12194255,18.56830406,-13.14138222,14.30429363
11.1266974,21.07837486,-14.67278862,10.5355978
11.13145219,21.97328949,-15.91944885,6.314659119
11.13620703,21.60479546,-16.82632828,2.70149684
11.14096188,21.30569267,-17.24746513,0.2464607358
11.14571672,21.70290184,-17.26900101,-1.043270707
11.15047156,22.04746819,-17.02493286,-1.914258122
11.15522641,21.69333076,-16.44347763,-2.54117775
11.15998125,20.99223328,-15.68973827,-2.871387243
11.16473609,19.91546249,-14.57468319,-2.792423964
11.16949094,18.69512367,-13.19163132,-2.624926329
11.17424578,17.29053688,-11.88275719,-2.311466694
11.17900062,15.72563076,-10.56191921,-1.935793519
11.18375547,14.11765385,-9.406186104,-1.464407444
11.18851026,12.33021545,-8.348558426,-0.9571290612
11.1932651,10.56670475,-7.599604607,-0.4833501875
11.19801995,9.020941734,-7.295716286,-0.404387027
11.20277479,7.733603001,-7.319644451,-0.6939185858
11.20752964,6.601797581,-7.850851059,-1.330409408
11.21228448,5.778666496,-8.860622406,-2.170290232
11.21703932,5.941378593,-10.17188931,-2.371287346
11.22179417,6.900900364,-11.44726372,-1.849651933
11.22654901,8.020741463,-12.47856998,-0.94277215
11.23130385,8.398807526,-13.11745358,-0.1986042857
11.2360587,8.00638485,-13.41655636,0.3445664644
11.24081349,7.195217609,-13.51944828,0.760917604
11.24556833,6.24766016,-13.60558987,1.191625714
11.25032318,5.414957523,-13.70608807,1.727617979
11.25507802,4.677968502,-13.79701519,1.39022994
11.25983286,3.833301783,-13.52184105,-3.254238844
11.26458771,2.483749866,-12.76570892,-6.819544315
11.26934255,1.586441398,-11.84447193,-4.768895626
11.2740974,1.289731383,-11.02134132,-0.8566305041
11.27885224,1.081555843,-10.28913784,0.6867401004
11.28360708,1.074377418,-9.607182503,1.256231904
11.28836188,1.258624673,-8.896514893,1.435693622
11.29311672,1.512263894,-8.252845764,1.584048629
11.29787156,1.904686809,-7.836493969,1.808973908
11.30262641,2.390429735,-7.79820919,2.084148407
11.30738125,2.435893536,-7.817351341,2.251646042
11.31213609,2.151147604,-7.968099594,2.033899307
11.31689094,1.715653777,-8.250452042,1.564906001
11.32164578,1.148554921,-8.549555779,1.146162033
11.32640063,0.7202396393,-8.793622971,0.4857429862
11.33115547,0.3589234054,-8.975478172,-0.1052841991
11.33591031,0.1770688742,-9.095118523,-0.5790630579
11.34066516,0.0765703246,-9.17886734,-0.8590233326
11.34541995,0.05503492057,-9.274580956,-1.040877819
11.35017479,-0.03349951655,-9.334401131,-1.136590719
11.35492964,-0.2656033039,-9.451649666,-1.064806104
11.35968448,-0.5599204898,-9.547362328,-0.9834501147
11.36443932,-0.8063812256,-9.686145782,-0.9212366939
11.36919417,-1.208375454,-9.755537987,-0.7226324677
11.37394901,-1.837687731,-9.82732296,-0.1555334777
11.37870385,-2.63689065,-9.987641335,0.3565305769
11.3834587,-3.471985579,-10.22931671,1.127019525
11.38821354,-3.646661758,-10.69591713,1.971685886
11.39296839,-3.192025423,-11.33958626,2.569891453
11.39772318,-2.476571321,-11.83968639,2.962314367
11.40247802,-1.337587833,-12.10289669,3.333201885
11.40723286,-0.3230310678,-12.13161087,3.936193228
11.41198771,0.404387027,-11.88754272,4.536791801
11.41674255,0.9164510965,-11.4640131,4.91007185
11.4214974,1.088734269,-10.89930725,5.223531723
11.42625224,0.9188438654,-10.22931671,5.434100151
11.43100708,0.4115654826,-9.602396965,5.513063431
11.43576193,-0.1674975902,-9.047262192,5.568098068
11.44051677,-0.5048855543,-8.611768723,5.594419479
11.44527156,-0.5264210105,-8.303094864,5.570491314
11.45002641,-0.337387979,-8.042277336,5.455635548
11.45478125,0.05264209956,-7.908278942,5.271388054
11.45953609,0.5670989752,-7.929814339,4.969892502
11.46429094,0.9762716293,-8.068597794,4.634897232
11.46904578,1.129412293,-8.147561073,4.555934429
11.47380062,1.115055323,-8.288737297,4.500899315
11.47855547,1.217946768,-8.475378036,4.527220249
11.48331031,1.387837172,-8.693124771,4.718646049
11.48806516,1.648654819,-8.908478737,4.867001057
11.49282,1.799402595,-9.090332985,4.92442894
11.49757479,1.713261008,-9.334401131,4.869394302
11.50232964,1.488335729,-9.509077072,4.701896667
11.50708448,1.229910851,-9.686145782,4.378865242
11.51183932,0.9738788009,-9.829715729,4.10608387
11.51659417,0.8446664214,-9.968499184,3.795016766
11.52134901,0.9834501147,-10.08335495,3.467200041
11.52610385,1.237089276,-10.15035343,3.079562664
11.5308587,1.607976794,-10.17428207,2.682354212
11.53561354,1.899901152,-10.06660461,2.294716835
11.54036838,2.060220242,-9.923035622,1.875972986
11.54512318,2.153540373,-9.74835968,1.495514154
11.54987802,2.187039852,-9.573683739,1.296909928
11.55463286,2.234896421,-9.370293617,1.189232826
11.55938771,2.285145521,-9.171689034,1.081555843
11.56414255,2.359323025,-8.941978455,1.083948612
11.5688974,2.392822742,-8.738588333,1.158126116
11.57365224,2.407179594,-8.559126854,1.280160069
11.57840708,2.567498684,-8.528019905,1.339980721
11.58316193,2.811566591,-8.499305725,1.361516118
11.58791677,3.022135019,-8.51844883,1.440479279
11.59267156,3.21356082,-8.578269005,1.485942841
11.59742641,3.388236761,-8.740981102,1.509871125
11.60218125,3.505485058,-8.915657043,1.47158587
11.60693609,3.613162279,-9.164510727,1.378265858
11.61169094,3.649054527,-9.403793335,1.270588875
11.61644578,3.716053486,-9.64068222,1.174875975
11.62120062,3.795016766,-9.84885788,1.036092162
11.62595547,3.869194269,-10.05942631,0.9260223508
11.63071031,3.986442566,-10.25324535,0.7633104324
11.63546516,4.07736969,-10.44945621,0.6532405615
11.64022,4.173082829,-10.61934662,0.5766702294
11.64497479,4.345366001,-10.76291656,0.4354937077
11.64972964,4.517649174,-10.90887833,0.1698904037
11.65448448,4.740181446,-10.99023438,-0.1268195957
11.65923932,5.694917679,-11.29172993,-6.465406895
11.66399417,8.070990562,-11.70808125,-17.19721603
11.66874901,8.867800713,-11.16251755,-13.66541004
11.67350385,7.444071293,-10.25563812,-6.711867332
11.6782587,6.075376511,-9.647860527,-3.105883837
11.68301354,5.706882,-9.303294182,-2.14157629
11.68776838,5.733202934,-8.98026371,-1.828116536
11.69252318,5.630311489,-8.676374435,-1.170090318
11.69727802,5.407779217,-8.386843681,0.009571290575
11.70203286,5.206781864,-8.051848412,1.261017561
11.70678771,5.161318302,-7.724031448,2.203789711
11.71154255,5.254638672,-7.439285755,2.754138947
11.7162974,5.412564754,-7.159325123,2.981456995
11.72105224,5.556134224,-6.948757172,2.926422119
11.72580708,5.64227581,-6.75972414,2.785245657
11.73056193,5.726024628,-6.592226505,2.596212626
11.73531677,5.814558983,-6.434299946,2.373680115
11.74007161,5.907878876,-6.209374905,2.177468538
11.74482641,5.998806477,-6.044270039,1.9812572
11.74958125,6.02752018,-5.833701611,1.835294962
11.75433609,6.025127411,-5.761917114,1.887937069
11.75909094,5.972485542,-5.78584528,2.124826431
11.76384578,5.974878311,-5.871986866,2.567498684
11.76860063,5.986842155,-6.113661766,3.242274761
11.77335547,5.740381718,-6.467799664,3.694518089
11.77811031,5.584847927,-6.943971157,4.058227062
11.78286516,5.522634506,-7.6426754,4.328616142
11.78761995,5.580062389,-8.449056625,4.505684853
11.79237479,5.881557941,-9.341579437,4.496113777
11.79712964,6.350551128,-10.22931671,4.381258488
11.80188448,6.862615108,-11.06201935,4.278367043
11.80663932,7.207181931,-11.81815147,4.220939159
11.81139417,7.408178806,-12.44028473,4.28315258
11.81614901,7.439285755,-12.98345566,4.400400639
11.82090385,7.30768013,-13.43569946,4.462614059
11.8256587,6.996613503,-13.85444355,4.462614059
11.83041354,6.620940208,-14.14158154,4.340580463
11.83516839,6.206982136,-14.31147194,4.04147768
11.83992318,5.72123909,-14.28036594,3.601198196
11.84467802,5.25942421,-13.94776344,3.067598581
11.84943286,4.840680122,-13.45244884,2.285145521
11.85418771,3.9170506,-13.02891922,-2.70149684
11.85894255,2.447857618,-12.83510113,-15.27338696
11.8636974,2.567498684,-12.97627735,-20.14517403
11.86845224,4.094119549,-12.33260822,-10.57866859
11.87320708,5.123033047,-11.36590767,-2.251646042
11.87796193,5.759523869,-10.48056316,1.021735311
11.88271677,5.998806477,-9.729216576,1.976471543
11.88747156,5.989234924,-9.12861824,2.069791555
11.89222641,6.467799664,-8.702695847,1.29451704
11.89698125,7.635497093,-8.46102047,-0.6053841114
11.90173609,9.202795982,-8.36052227,-3.16570425
11.90649094,10.38245773,-8.334200859,-4.785645485
11.91124578,10.76530933,-8.300702095,-4.326223373
