Time (s),Acceleration x (m/s^2),Acceleration y (m/s^2),Acceleration z (m/s^2)
9.001285156,-1.2899716271204758,1.4601893709188754,1.7605376380021156
9.00604,-1.2013756571843583,1.389317665756434,1.979216793951814
9.010794844,-1.1128382036296225,1.3150533084286933,2.193710844585243
9.015549687,-1.0248839466582544,1.237812961485304,2.402934331702166
9.020304479,-0.9380284815646486,1.1580191120606154,2.605820212542208
9.025059323,-0.8527737889408825,1.0760961032640435,2.8013276190556695
9.029814167,-0.7696038188146306,0.9924663786264938,2.9884494987646257
9.03456901,-0.6889802338609164,0.9075470019599555,3.166220069407724
9.039323802,-0.611338354398584,0.821746507116275,3.3337220206880374
9.044078646,-0.5370833447687682,0.7354621228050565,3.490093398359246
9.048833489,-0.46658667698590117,0.6490774071162896,3.6345341085798752
9.053588333,-0.4001829033918746,0.5629603150070456,3.766311983887878
9.058343177,-0.338166765623212,0.4774617101104451,3.884768356224383
9.063097969,-0.28079066274103626,0.3929143202199085,3.9893230870877012
9.067852812,-0.2282624970517333,0.3096321241643952,4.079479010061245
9.072607656,-0.1807439120134361,0.2279101470143743,4.154825746583371
9.0773625,-0.1383489325867303,0.14802463107186334,4.215042861854792
9.082117344,-0.10114301429364703,0.07023354218558217,4.259902334097281
9.086872135,-0.06914250301516724,-0.005222635279493451,4.289270316813011
9.091626979,-0.042314503246608966,-0.07811986598620645,4.303108180072191
9.096381823,-0.020577148307714926,-0.1482493476780927,4.3014728230682415
9.101136667,-0.003800262042305478,-0.21541616697118324,4.2845162562050465
9.10589151,0.008193602037719518,-0.2794378818646036,4.252484456863563
9.110646302,0.01562776133830948,-0.3401430843410336,4.205715508795081
9.115401146,0.01876966432084313,-0.39736999359732733,4.1446370408402196
9.120155989,0.017928832180888442,-0.4509651265426291,4.069762986366596
9.124910833,0.013454505764736726,-0.5007820873974338,3.9816896904055215
9.129665677,0.005733022669647443,-0.54668051271609,3.881091396879666
9.134420521,-0.004815049769499929,-0.5885252021489831,3.768715153475323
9.139175312,-0.017737999693849094,-0.6261854589798002,3.645375176547396
9.143930156,-0.03255624857511031,-0.6595346581317235,3.511946722865513
9.148685,-0.04876579700844744,-0.6884500531284583,3.369359518926272
9.153439844,-0.06584181495977452,-0.7128128275980291,3.2185908019087752
9.158194635,-0.08324235437529155,-0.7325083914794402,3.0606580291268495
9.162949479,-0.10041216342186611,-0.7474269172632171,2.8966113150425614
9.167704323,-0.116786582765498,-0.7574641074460187,2.727525656529145
9.172459167,-0.1317955050639222,-0.7625221809397353,2.5544930080338006
9.17721401,-0.1448673791655567,-0.762511063444931,2.3786142685188203
9.181968802,-0.15543324035931896,-0.7573497647382569,2.2009912415502
9.186723646,-0.16293074747126002,-0.7469679243449439,2.0227186287495
9.191478489,-0.16680820678778777,-0.7313075060336144,1.8448761151884885
9.196233333,-0.16652856187773932,-0.7103246208181856,1.6685206033635371
9.200988177,-0.1615733275532663,-0.6839914575216689,1.4946786502802865
9.205743021,-0.15144644556091155,-0.652298299320119,1.324339159992295
9.210497812,-0.1356780391677497,-0.6152556039558308,1.1584463817017876
9.215252656,-0.1138280435970006,-0.5728961244430794,0.9978932612567994
9.2200075,-0.08548968926202333,-0.5252770460755156,0.8435151915866227
9.224762344,-0.05029281495741586,-0.47248211439225496,0.6960842053412463
9.229517187,-0.00790698862334156,-0.4146237274946361,0.5563036507689582
9.234271979,0.04195558596047772,-0.3518449647620783,0.42480338967563247
9.239026823,0.09953739715245546,-0.28432152263741123,0.30213555411678805
9.243781667,0.1650332073601207,-0.21226352679739938,0.1887708962140284
9.24853651,0.23858790653139852,-0.1359171887696992,0.08509576309675096
9.253291354,0.3202946530156721,-0.05556627400062047,-0.008590273599745913
9.258046198,0.41019331551739463,0.028466652364641874,-0.09207610702832959
9.262800989,0.5082692276230832,0.1158192360257989,-0.1652400795754964
9.267555833,0.6144522640035903,0.20608863415318407,-0.22805024207223343
9.272310677,0.7286162449246891,0.29883113888396884,-0.28056387088796825
9.277065521,0.8505786731950826,0.39356215474074724,-0.3229262297821245
9.281820364,0.9801008051967428,0.48975655848921,-0.3553685674122138
9.286575208,1.1168880552218812,0.5868494666321803,-0.37820534571143577
9.29133,1.260590730008484,0.6842374316911168,-0.3918306989661745
9.296084844,1.4108050881287235,0.781280083749132,-0.3967141283479276
9.300839687,1.567074716767828,0.8773022285373602,-0.3933954420250739
9.305594531,1.7288922166266876,0.9715964077346565,-0.3824789576459889
9.310349375,1.8957011847498795,1.0634259211563308,-0.36462699415466054
9.315104167,2.066898485802486,1.15202830416211,-0.34055269620922635
9.31985901,2.241836804904904,1.236619247120623,-0.3110122569084053
9.324613854,2.4198274785130676,1.3163969376174014,-0.276796628593222
9.329368698,2.6001436021170923,1.3905468008701076,-0.23872283093224964
9.334123542,2.7820234134109434,1.4582466098237132,-0.19762497691316933
9.338878333,2.9646739471238877,1.5186719335060077,-0.1543451415158485
9.343633177,3.1472749538929414,1.571001890040214,-0.1097241974321261
9.348388021,3.3289830713995214,1.6144251688596907,-0.06459273950854051
9.353142864,3.508936232048602,1.648146284910734,-0.01976221580093095
9.357897708,3.686258287898224,1.6713920258566606,0.02398362136258412
9.362652552,3.860063830320372,1.6834180514934691,0.06589683610333365
9.367407344,4.029463178885849,1.6835156027855254,0.10527289933002841
9.372162187,4.193567511090128,1.671018276164857,0.14145765361271126
9.376917031,4.351494101674154,1.6453088170192849,0.17385356582805092
9.381671875,4.5023716374143135,1.6058258845943179,0.2019251904506798
9.386426719,4.6453455704156585,1.552070738795493,0.2252037773238562
9.391181562,4.77958347026475,1.4836137975426988,0.2432909699415047
9.395936354,4.904280333040608,1.40010101135949,0.2558615536071992
9.400691198,5.018663803307492,1.3012599997817775,0.26266522720337815
9.405446042,5.121999263966401,1.1869058919964943,0.2635273876074122
9.410200885,5.213594748337776,1.0569468119885002,0.258348931895745
9.414955729,5.292805629174892,0.9113889465659372,0.24710509915494216
9.419710573,5.359039040525265,0.7503411331918399,0.22984339060041278
9.424465364,5.411757990454033,0.5740189038475508,0.20668062328018297
9.429220208,5.450485125481612,0.3827479214509539,0.17779918832085512
9.433975052,5.474806110906408,0.17696674682790028,0.1434425988862546
9.438729896,5.4843725946794875,-0.04277112307103987,0.10391042532628395
9.443484739,5.478904725938251,-0.27579600121047726,0.059552725142585354
9.448239583,5.458193202586092,-0.5213215915577151,0.010764083309316637
9.452994375,5.422100825443527,-0.7784454506324832,-0.04202261591264707
9.457749219,5.370563539608058,-1.0461503691307263,-0.09834256191420288
9.462504062,5.303590946964865,-1.3233067072723421,-0.15770541420351739
9.467258906,5.221266277624115,-1.6086757117100823,-0.2196016119592725
9.47201375,5.123745812756727,-1.9009138363748936,-0.28350850611604367
9.476768594,5.0112577569339765,-2.198578084353606,-0.3488962481128546
9.481523437,4.884100564322921,-2.5001323821873096,-0.4152333915877358
9.486278229,4.742640729397079,-2.8039549910663246,-0.4819921779840963
9.491033073,4.587310058754802,-3.1083469507151333,-0.5486534843361173
9.495787917,4.41860244610607,-3.4115415411188463,-0.6147114145298406
9.50054276,4.237070177715937,-3.7117147347589827,-0.6796775172564492
9.505297604,4.043319800882121,-4.006996597980667,-0.7430846166197915
9.510052448,3.838007593468813,-4.295483584840811,-0.8044902455737101
9.514807292,3.621834677847596,-4.575251650636035,-0.8634796776204358
9.519562083,3.3955418272822917,-4.844370095659958,-0.9196685574647546
9.524316927,3.1599040163764647,-5.100916033043741,-0.9727051356180432
9.529071771,2.915724769560801,-5.342989358327867,-1.0222721148566507
9.533826614,2.6638303629475573,-5.5687280832846495,-1.068088118107271
9.538581458,2.405063935538204,-5.776323883036963,-1.1099087882061958
9.543336302,2.140279565966273,-5.964037694204239,-1.1475275305444557
9.548091146,1.8703363708159424,-6.130215193036525,-1.180775910238279
9.552845937,1.596092680172388,-6.273301976518284,-1.2095237163445731
9.557600781,1.3184003455243036,-6.391858266371327,-1.2336787067823929
9.562355625,1.0380992345230091,-6.4845729558433405,-1.2531860489143225
9.567110469,0.7560119664441731,-6.550276822212029,-1.2680274720533042
9.571865312,0.472938941515857,-6.587954734137686,-1.278220149405668
9.576620156,0.18965371658880192,-6.596756692392584,-1.2838153281259477
9.581374948,-0.09310122105905509,-6.576007555061424,-1.284896727273441
9.586129792,-0.37461823073265177,-6.525215313983567,-1.281578724546284
9.590884635,-0.6542277960856514,-6.444077807898731,-1.2740043537086316
9.595639479,-0.931301255123229,-6.3324877792523315,-1.2623431355769905
9.600394323,-1.2052529362777196,-6.190536205493474,-1.2467887662565986
9.605149167,-1.4755416577252067,-6.0185138613105815,-1.2275566869906347
9.60990401,-1.7416715515691337,-5.816911094785956,-1.2048815604417786
9.614658802,-2.0031921803750383,-5.586415827005377,-1.1790146783220508
9.619413646,-2.259697921169558,-5.327909810296883,-1.1502213247873019
9.624168489,-2.5108266016731307,-5.042463204112228,-1.1187781186655255
9.628923333,-2.756257385198403,-4.731327548849195,-1.0849703553629697
9.633678177,-2.995707914079861,-4.395927236033296,-1.0490893667678947
9.638433021,-3.2289307364142896,-4.037849587770685,-1.011429915946081
9.643187864,-3.455709056914142,-3.658833669004799,-0.9722876441725347
9.647942656,-3.675851869126729,-3.2607579629816263,-0.9319565909146194
9.6526975,-3.889188542105283,-2.8456270440369895,-0.890726811227386
9.657452344,-4.0955629487712875,-2.415557383286187,-0.8488821175388074
9.662207187,-4.294827235069257,-1.972762422983618,-0.8066979726812187
9.666962031,-4.486835338546801,-1.5195370549494325,-0.7644395582452116
9.671716875,-4.671436372460102,-1.0582416378964314,-0.7223600377633695
9.676471719,-4.848467997147042,-0.5912856877841276,-0.6806990289592829
9.68122651,-5.017749904299427,-0.12111137433836895,-0.6396812941573571
9.685981354,-5.179077541847133,0.34982304459823965,-0.5995156534017957
9.690736198,-5.332216207355579,0.8190597213575402,-0.5603941210450066
9.695491042,-5.476895636093728,1.284157522777124,-0.5224912634849581
9.700245885,-5.612805206279866,1.7427080177563985,-0.48596377313488587
9.705000729,-5.739589878528374,2.1923510299101063,-0.45095025132835903
9.709755573,-5.856846979287355,2.630789642816626,-0.4175711905715014
9.714510417,-5.96412392914442,3.0558045519565415,-0.38592914446667076
9.719265208,-6.060917006319375,3.465267665035667,-0.356109072042649
9.724020052,-6.146671223449049,3.8571548609747297,-0.3281788424462133
9.728774896,-6.220781381868685,4.229557827346664,-0.30218988612251035
9.733529739,-6.282594351978289,4.580694906296743,-0.27817797960025203
9.738284583,-6.331412610955123,4.908920889777038,-0.2561641524202951
9.743039427,-6.366499050098775,5.212735716028807,-0.2361557061360782
9.747794271,-6.387083043624116,5.490792030432336,-0.21814733628961175
9.752549062,-6.3923677490138004,5.741901584929262,-0.2021223486134055
9.757303906,-6.3815385864958305,5.965040461069947,-0.1880539603789964
9.76205875,-6.353772822340306,6.159353112251255,-0.17590667688456182
9.766813594,-6.3082501581140615,6.3241552308049105,-0.1656377317124486
9.771568437,-6.244164206553736,6.45893545515131,-0.1571985778158974
9.776323281,-6.160734715145987,6.563355941046418,-0.15053641495347458
9.781078125,-6.057220381593297,6.637251828767725,-0.14559573766203138
9.785832917,-5.932932091602217,6.6806296447140365,-0.14231988689554617
9.79058776,-5.787246399041617,6.693664681297895,-0.1406525875763088
9.795342604,-5.619619061403934,6.676697403319754,-0.1405394534681831
9.800097448,-5.429598439445113,6.630228932442922,-0.1419294398828408
9.804852292,-5.216838568628564,6.554915664139896,-0.1447762237403493
9.809607135,-4.98111171133804,6.451563073699183,-0.14903948947509918
9.814361979,-4.722320202590256,6.321118769654861,-0.1546860983148453
9.819116771,-4.440507408038889,6.1646648543811065,-0.1616911177017215
9.823871614,-4.135867621289377,5.983409652613994,-0.17003868719802312
9.828626458,-3.808754737802258,5.7786788693463516,-0.1797226972168988
9.833381302,-3.459689554806639,5.551906238906167,-0.19074725738850032
9.838136146,-3.0893655605200396,5.304623727094892,-0.20312693233663873
9.842890989,-2.698653091416574,5.038451348053214,-0.21688672409868207
9.847645833,-2.28860175314864,4.755086657065689,-0.2320617823520903
9.852400677,-1.8604410188644018,4.456293979843586,-0.2486968259822372
9.857155469,-1.4155789379352939,4.143893437976456,-0.26684526230337086
9.861910312,-0.9555989083835832,3.8197498292663745,-0.28656799340329464
9.866665156,-0.4822544874729039,3.4857614206111074,-0.3079319026246988
9.87142,0.0025377630801101704,3.1438487100433194,-0.3310080181622986
9.876174844,0.4967073780551877,2.7959432135188256,-0.3558693552245062
9.880929687,0.998040993160002,2.4439763311244893,-0.38258844330097413
9.885684531,1.5041951861812586,2.08986834656972,-0.41123455097331457
9.890439375,2.012711063516534,1.7355176131132408,-0.44187062769523056
9.895194219,2.5210304760046194,1.3827899783720783,-0.4745499904864788
9.89994901,3.026513723743742,1.0335084996185195,-0.5093127940388685
9.904703854,3.526458586865025,0.6894435000364109,-0.5461823356357076
9.909458698,4.0181204989885,0.3523030148702434,-0.5851612613141691
9.914213542,4.498733662958776,0.023723674442986318,-0.6262277559269248
9.918968385,4.965532894626538,-0.2947379312397292,-0.6693318157469025
9.923723229,5.415775969762184,-0.601613363857815,-0.7143917164194153
9.928478073,5.8467662412864,-0.8955298835457031,-0.7612907998164417
9.933232864,6.255875288343328,-1.1752173915021227,-0.8098747089491891
9.93798776,6.640565354720676,-1.4395147287550993,-0.8599491985659703
9.942742552,6.998411331328206,-1.687375290239559,-0.9112786386644597
9.947497396,7.327122036080797,-1.917871911746728,-0.9635853083362268
9.952252239,7.624560545612885,-2.1302009862021776,-1.0165495494208274
9.957007083,7.888763338241451,-2.3236857660727916,-1.0698108162468618
9.961761927,8.117958017615747,-2.497778811148956,-1.1229696229317558
9.966516771,8.310579401781997,-2.652063545749338,-1.1755903569326174
9.971271614,8.465283782408509,-2.7862548964401075,-1.227204899678632
9.976026458,8.580961182816948,-2.9001989902586653,-1.2773169736780763
9.98078125,8.656745470496242,-2.993871903627429,-1.3254071204014142
9.985536094,8.692022209368076,-3.0673774630494846,-1.370938203371533
9.990290937,8.686434168652166,-3.120944109782583,-1.4133613250066026
9.995045781,8.639884437909213,-3.1549208515742504,-1.452122043125905
9.999800625,8.552537130623223,-3.1697723348721225,-1.4866667733811574
10.00455547,8.424815690504195,-3.1660730804813952,-1.5164492670454104
10.00931031,8.257398844977361,-3.1445009344084545,-1.5409370592264533
10.01406516,8.051214279003972,-3.1058297937907553,-1.5596177901147736
10.01881995,7.807430129556956,-3.0509216755876167,-1.5720053106645662
10.02357479,7.5274444266251965,-2.9807182031407664,-1.5776454934523287
10.02832964,7.212872630036045,-2.896231592631279,-1.5761216787162842
10.03308448,6.865533432009674,-2.79853522759575,-1.567059694275722
10.03783932,6.487433012690395,-2.6887539148015778,-1.5501323960301872
10.04259417,6.080747949610306,-2.5680539187685887,-1.5250636833739293
10.04734901,5.647806991772059,-2.4376328749399576,-1.4916319518904333
10.05210385,5.191071914421946,-2.2987096828607347,-1.4496729550560319
10.0568587,4.71311767157126,-2.1525144806898107,-1.3990820580346417
10.06161349,4.216612060398743,-2.0002788009514907,-1.339815879860547
10.06636833,3.7042951056844684,-1.8432260045896056,-1.2718933342969692
10.07112318,3.178958364303537,-1.6825620860626216,-1.1953960926693192
10.07587802,2.6434243403907054,-1.5194669364331788,-1.110468502177559
10.08063286,2.1005261917787488,-1.3550861443164144,-1.0173169993620632
10.08538771,1.553087898094637,-1.1905234063929688,-0.9162090603459535
10.09014255,1.003905050391593,-1.026833610166789,-0.8074717279919076
10.0948974,0.4557264110245089,-0.8650166418673036,-0.6914897524239375
10.09965224,-0.08876361970668965,-0.7060119619226116,-0.5687033766182131
10.10440703,-0.6269615069310707,-0.5506939793626949,-0.43960579379402476
10.10916188,-1.156359945711621,-0.39986824502674817,-0.3047402986542994
10.11391672,-1.6745619929033926,-0.25426847176954204,-0.16469715039856542
10.11867156,-2.1792938881897737,-0.11455437819375147,-0.020110161955904513
10.12342641,-2.6684165019467407,0.01868965905259274,0.1283469729118586
10.12818125,-3.1399353634160185,0.14495517050845277,0.27996460507362314
10.13293609,-3.5920092383158506,0.26380941331690744,0.4340012998068306
10.13769094,-4.022957240255735,0.3748944912145296,0.589688243077459
10.14244578,-4.431264474881195,0.477925830152705,0.7462338759816312
10.14720057,-4.815586229326607,0.5726900720427506,0.9028287474514455
10.15195542,-5.174750732179014,0.6590424551711512,1.0586505727674143
10.15671026,-5.507760520725488,0.7369037543892724,1.2128694819763444
10.1614651,-5.813792462745176,0.8062568571398324,1.3646534381512596
10.16621995,-6.092196489446633,0.8671430526687075,1.513173800695582
10.17097479,-6.342493104293444,0.9196581113632768,1.6576110037115805
10.17572964,-6.564369739474852,0.9639482290853285,1.7971603139823622
10.18048448,-6.757676037869209,1.0002059076952639,1.9310376276028993
10.18523932,-6.922418143782839,1.0286658377973381,2.0584852590567677
10.18999411,-7.058752090723546,1.0496008432079265,2.178777671894692
10.19474896,-7.1669763789904035,1.0633179389249545,2.291227096404605
10.1995038,-7.247523839678007,1.070154545662278,2.3951889769994072
10.20425865,-7.300952884377648,1.0704748945877693,2.4900671906812506
10.20901349,-7.327938241030344,1.0646666461414127,2.575318978001398
10.21376833,-7.329261275931094,1.0531377371396156,2.6504595294495465
10.21852318,-7.30579999999964,1.0363134612066445,2.715066173092403
10.22327802,-7.258518854521378,1.0146337792519464,2.7687821133787094
10.22803286,-7.188458368057844,0.9885508494751908,2.811319676139989
10.23278766,-7.096724772464925,0.9585267603708372,2.8424630207304222
10.2375425,-6.984479662099147,0.925031445470625,2.862070286742807
10.24229734,-6.852929776310323,0.8885407550874658,2.870075149572199
10.24705219,-6.7033169810575135,0.8495346580510333,2.8664877660166437
10.25180703,-6.5369085207933475,0.8084955452789793,2.8513950978529543
10.25656188,-6.354987606605971,0.7659066069239115,2.8249606077215392
10.26131672,-6.158844401073815,0.7222502556770498,2.7874233276452585
10.26607156,-5.949767454475208,0.6780065704674044,2.739096306173764
10.27082641,-5.729035640929451,0.6336517371059952,2.6803644456269495
10.27558125,-5.497910636698865,0.5896564652080752,2.611681746310397
10.28033604,-5.257629976246967,0.5464843638247326,2.5335679799035242
10.28509088,-5.009400714800553,0.5045902615130208,2.446604819414461
10.28984573,-4.754393719240987,0.46441845999233367,2.3514314580530398
10.29460057,-4.493738602288877,0.42640091401875135,2.248739753972898
10.29935542,-4.228519308234418,0.3909553336125937,2.13926894194304
10.30411026,-3.9597703519523235,0.3584832082479094,2.02379995650683
10.3088651,-3.688473706668745,0.32936775599933116,1.9031494139883973
10.31361995,-3.41555632996532,0.30397180388901096,1.7781633027846127
10.31837479,-3.1418883118634904,0.2826356087489598,1.649710432771168
10.32312964,-2.868281623598479,0.26567463079310566,1.5186756954510754
10.32788443,-2.595489440962408,0.25337727476543215,1.3859531868200252
10.33263927,-2.3242060119774846,0.24600261598170933,1.2524392449601143
10.33739411,-2.055067035241709,0.24377813079697586,1.119025454221955
10.34214896,-1.788650512615113,0.24689745299185042,0.9865916675811903
10.3469038,-1.5254780379695687,0.25551817926077475,0.8559990983582122
10.35165865,-1.2660164824350975,0.269759748389657,0.7280835319328112
