Time (s),Acceleration x (m/s^2),Acceleration y (m/s^2),Acceleration z (m/s^2)
10.00221266,5.412564754,-1.706082582,-1.241874933
10.00696802,5.589633465,-1.804188251,-1.064806104
10.01172339,5.778666496,-1.916650891,-0.9978070259
10.0164787,5.927021503,-2.012363911,-1.194018483
10.02123406,6.051448345,-2.096112728,-1.411765337
10.02598938,6.187839508,-2.191825628,-1.450050473
10.03074474,6.41037178,-2.27078867,-1.323230863
10.03550011,6.628118515,-2.318645239,-1.158126116
10.04025542,6.628118515,-2.378465652,-1.009771109
10.04501078,6.50369215,-2.428714991,-1.014556766
10.0497661,6.252445698,-2.474178553,-1.155733347
10.05452146,5.955735683,-2.488535643,-1.349551916
10.05927683,5.697310925,-2.505285263,-1.493121386
10.06403214,5.582455158,-2.490928411,-1.495514154
10.0687875,5.606383324,-2.443071842,-1.447657704
10.07354287,5.7571311,-2.376072884,-1.35912323
10.07829818,5.860022545,-2.294716835,-1.174875975
10.08305354,6.084948063,-2.215753794,-1.42372942
10.08780886,6.374479294,-2.155933142,-1.488335729
10.09256422,6.60419035,-2.158325911,-1.567298889
10.09731959,6.687939167,-2.210968018,-1.703689694
10.1020749,6.678368092,-2.287538528,-1.823330879
10.10683026,6.608976364,-2.435893536,-1.840080619
10.11158563,6.623332977,-2.598605394,-1.816152334
10.11634094,6.723831654,-2.787638426,-1.730010748
10.1210963,6.910471916,-2.962314367,-1.636690736
10.12585162,7.133004189,-3.146561861,-1.490728498
10.13060698,7.286144733,-3.306880951,-1.366301775
10.13536235,7.417750359,-3.460021496,-1.325623751
10.14011766,7.590033531,-3.6299119,-1.368694544
10.14487302,7.755138397,-3.783052683,-1.490728498
10.14962839,7.941778183,-3.960121393,-1.548156261
10.1543837,8.106883049,-4.067798615,-1.548156261
10.15913906,8.279166222,-4.187439442,-1.476371527
10.16389443,8.41077137,-4.314259052,-1.457229018
10.16864974,8.511270523,-4.436293125,-1.466800332
10.17340511,8.575876236,-4.53918457,-1.524227977
10.17816042,8.618947029,-4.661218643,-1.584048629
10.18291578,8.606983185,-4.788038254,-1.572084427
10.18767115,8.595019341,-4.934000492,-1.543370605
10.19242646,8.559126854,-5.067998409,-1.526620865
10.19718183,8.551948547,-5.211567879,-1.529013634
10.20193719,8.415556908,-5.297709465,-1.373480201
10.2066925,8.516056061,-5.338387489,-1.296909928
10.21144787,8.671588898,-5.431707382,-1.275374413
10.21620323,8.788837433,-5.527420521,-1.335195065
10.22095854,8.848658562,-5.603990555,-1.395015597
10.22571391,8.760123253,-5.687739372,-1.40697968
10.23046927,8.640482903,-5.747560024,-1.409372568
10.23522459,8.484949112,-5.807380676,-1.337587833
10.23997995,8.238488197,-5.833701611,-1.217946768
10.24473526,8.035098076,-5.871986866,-1.036092162
10.24949063,7.841279984,-5.881557941,-0.8279166222
10.25424599,7.728816986,-5.871986866,-0.6915257573
10.2590013,7.580461979,-5.850451469,-0.5718846321
10.26375667,7.477570534,-5.790630817,-0.457029134
10.26851203,7.439285755,-5.745167255,-0.3637090325
10.27326735,7.412964344,-5.711667538,-0.35174492
10.27802271,7.424928665,-5.690132141,-0.4857429862
10.28277808,7.362715244,-5.661418438,-0.7130611539
10.28753339,7.250252724,-5.661418438,-0.9284151793
10.29228875,7.118647575,-5.659025669,-1.069591761
10.29704412,6.979863644,-5.726024628,-1.10309124
10.30179943,6.793223381,-5.754738331,-1.048056364
10.30655479,6.671189308,-5.848058701,-0.8709874153
10.31131016,6.467799664,-5.946164131,-0.6987041831
10.31606547,6.29790926,-6.051448345,-0.5814558864
10.32082084,6.149554253,-6.175875187,-0.5359922647
10.3255762,6.125626087,-6.415157318,-0.471386075
10.33033151,6.092126369,-6.637690067,-0.3828516304
10.33508688,6.116054535,-6.898507595,-0.35174492
10.33984219,6.21894598,-7.178467751,-0.3732803464
10.34459755,6.419943333,-7.523034573,-0.4881358147
10.34935292,6.704689026,-7.877171993,-0.6340979934
10.35410823,6.953542709,-8.28155899,-0.7489534616
10.3588636,7.185646534,-8.71705246,-0.8183453679
10.36361896,7.434499741,-9.147761345,-0.8327022791
10.36837427,7.716853142,-9.566504478,-0.7393822074
10.37312964,7.932207108,-9.992427826,-0.6675975323
10.377885,8.188239098,-10.38963604,-0.6699903607
10.38264032,8.413164139,-10.78445148,-0.7058826685
10.38739568,8.630910873,-11.13380337,-0.7537391186
10.39215104,8.714659691,-11.34915733,-0.7585247755
10.39690636,8.755337715,-11.46879864,-0.7274180651
10.40166172,8.729017258,-11.57886887,-0.70348984
10.40641709,8.690732002,-11.49751282,-0.7226324677
10.41117245,8.606983185,-11.22712421,-0.760917604
10.41592776,8.595019341,-10.84666538,-0.8183453679
10.42068313,8.571090698,-10.36331463,-0.8231309652
10.42543844,8.573483467,-9.856036186,-0.8183453679
10.4301938,8.578269005,-9.41336441,-0.8087740541
10.43494917,8.561519623,-8.97308445,-0.7872386575
10.43970448,8.551948547,-8.633303642,-0.7226324677
10.44445985,8.537590981,-8.379665375,-0.6364908218
10.44921521,8.532805443,-8.142775536,-0.5455635786
10.45397052,8.51844883,-7.989634991,-0.4881358147
10.45872589,8.539983749,-7.8341012,-0.5479564071
10.46348125,8.554341316,-7.728816986,-0.7680960894
10.46823656,8.520841599,-7.697710514,-1.026520967
10.47299193,8.449056625,-7.668996811,-1.115055323
10.47774729,8.317451477,-7.628318787,-1.043270707
10.48250261,8.197810173,-7.621140003,-0.8422735929
10.48725797,8.049455643,-7.65703249,-0.7250252366
10.49201334,7.838887215,-7.740781307,-0.7106683254
10.49676865,7.709674358,-7.884350777,-0.7824530005
10.50152401,7.5924263,-8.080561638,-0.9164510965
10.50627938,7.570890903,-8.298309326,-1.138983607
10.51103474,7.594819069,-8.544769287,-1.378265858
10.51579005,7.676175117,-8.822337151,-1.720439434
10.52054542,7.800601959,-9.131011009,-2.199003935
10.52530073,8.00638485,-9.473184586,-2.677568436
10.5300561,8.23370266,-9.808179855,-3.007778168
10.53481146,8.51844883,-10.17188931,-3.086741209
10.53956677,8.793622971,-10.46142101,-2.94317174
10.54432214,9.006584167,-10.68156052,-2.589034081
10.5490775,9.040083885,-10.75095177,-2.14157629
10.55383282,8.908478737,-10.66720295,-1.713261008
10.55858818,8.750552177,-10.45424175,-1.47158587
10.56334354,8.530412674,-10.18863869,-1.347159147
10.56809891,8.252845764,-9.870393753,-1.392622828
10.57285422,7.886743546,-9.497113228,-1.526620865
10.57760959,7.501499176,-9.140582085,-1.732403636
10.58236495,7.137789726,-8.800801277,-1.85443759
10.58712026,6.757331371,-8.446663857,-1.942971945
10.59187563,6.398407936,-8.164310455,-1.945364833
10.59663099,6.077769279,-7.884350777,-1.871187329
10.6013863,5.749952793,-7.60678339,-1.741974831
10.60614167,5.486742496,-7.379465103,-1.555334687
10.61089703,5.204389095,-7.180860519,-1.299302697
10.61565235,4.900500774,-7.013363361,-1.028913736
10.62040771,4.685146809,-6.841079712,-0.7657032609
10.62516308,4.52482748,-6.757331371,-0.5455635786
10.62991844,4.462614059,-6.697510719,-0.3876372576
10.63467375,4.405186653,-6.656832695,-0.2751746178
10.63942912,4.419543266,-6.716653347,-0.1579262912
10.64418448,4.421936035,-6.771687984,-0.08614161611
10.64893979,4.491328239,-6.876972198,-0.01914258115
10.65369516,4.555934429,-7.061219692,0.007178467698
10.65845052,4.656432629,-7.204789162,0.05264209956
10.66320584,4.792823792,-7.377072334,0.1603191197
10.6679612,5.000999451,-7.561319351,0.2847459018
10.67271656,5.237888813,-7.72163868,0.433100909
10.67747188,5.551348686,-7.910671711,0.5168496966
10.68222724,5.931807518,-8.051848412,0.5742774606
10.68698261,6.360122681,-8.161917686,0.5934200287
10.69173792,6.831508636,-8.236095428,0.5431707501
10.69649328,7.269395351,-8.312665939,0.4761717021
10.70124865,7.738388538,-8.307880402,0.3397808075
10.70600396,8.166703224,-8.238488197,0.1770688742
10.71075933,8.501698494,-8.15473938,0.05503492057
10.71551469,8.74576664,-8.00638485,-0.05503492057
10.72027005,8.898907661,-7.858029366,-0.1052841991
10.72502537,8.95154953,-7.726424217,-0.2129612118
10.72978073,8.937192917,-7.561319351,-0.313459754
10.7345361,8.855836868,-7.417750359,-0.4283152521
10.73929141,8.784051895,-7.288537979,-0.6173482537
10.74404677,8.72423172,-7.178467751,-0.837487936
10.74880214,8.71705246,-7.08036232,-1.057627559
10.75355745,8.822337151,-7.006184578,-1.251446247
10.75831282,8.965906143,-6.92243576,-1.373480201
10.76306818,9.291330338,-6.886543751,-1.445264935
10.76782349,9.611968994,-6.893722057,-1.490728498
10.77257886,9.872786522,-6.932007313,-1.473978758
10.77733422,10.07378292,-6.948757172,-1.387837172
10.78208953,10.17667484,-7.010970116,-1.339980721
10.7868449,10.3346014,-7.101897717,-1.330409408
10.79160026,10.39920712,-7.140182972,-1.356730461
10.79635563,10.3776722,-7.228717327,-1.354337573
10.80111094,10.23410225,-7.374679565,-1.304088354
10.8058663,9.949356079,-7.484749317,-1.275374413
10.81062167,9.659825325,-7.633104324,-1.282552958
10.81537698,9.276973724,-7.716853142,-1.34237349
10.82013235,8.71705246,-7.805387497,-1.320838094
10.82488771,8.056633949,-7.822137356,-1.308874011
10.82964302,7.518248558,-7.791030407,-1.208375454
10.83439839,7.154539585,-7.731209755,-1.174875975
10.83915375,7.042077065,-7.65703249,-1.234696507
10.84390906,6.984649181,-7.523034573,-1.385444283
10.84866443,7.018148899,-7.405786037,-1.584048629
10.85341979,6.977470875,-7.264609337,-1.789831281
10.85817511,6.86022234,-7.113861561,-1.940579176
10.86293047,6.704689026,-6.979863644,-1.938186288
10.86768584,6.48933506,-6.886543751,-1.811366796
10.87244115,6.262016773,-6.798008919,-1.617548108
10.87719651,6.096911907,-6.735795975,-1.440479279
10.88195188,5.965306759,-6.601797581,-1.282552958
10.88670724,5.874379635,-6.498906136,-1.155733347
10.89146255,5.881557941,-6.336194515,-1.115055323
10.89621792,6.010770321,-6.175875187,-1.045663476
10.90097328,6.269195557,-6.022734642,-0.94277215
10.9057286,6.357729912,-5.709274769,-0.9188438654
10.91048396,6.587440968,-5.484349728,-0.8877372146
10.91523932,6.896114826,-5.223531723,-0.8231309652
10.91999464,7.106683254,-4.981856823,-0.8877372146
10.92475,7.314858913,-4.677968502,-1.002592683
10.92950537,7.460821152,-4.441078663,-1.131805062
10.93426073,7.549355507,-4.230510235,-1.16769743
10.93901604,7.484749317,-4.007977962,-1.21555388
10.94377141,7.391428947,-3.847658873,-1.241874933
10.94852677,7.30768013,-3.759124279,-1.29451704
10.95328209,7.305287361,-3.699303865,-1.31126678
10.95803745,7.429714203,-3.617947817,-1.32801652
10.96279282,7.647460938,-3.491128206,-1.416550994
10.96754818,7.939385414,-3.285345554,-1.55054903
10.97230349,8.18345356,-3.170490026,-1.739582062
10.97705886,8.257631302,-3.151347399,-1.859223247
10.98181422,8.169096947,-3.254238844,-1.820937991
10.98656953,8.020741463,-3.450450182,-1.689332843
10.9913249,7.855636597,-3.694518089,-1.459621787
10.99608026,7.633104324,-3.890729666,-1.239482164
11.00083558,7.331608772,-4.079762459,-1.048056364
11.00559094,7.05164814,-4.197010994,-0.8709874153
11.0103463,6.95114994,-4.273581028,-0.7800601721
11.01510162,7.003791809,-4.218546391,-0.9092726111
11.01985698,7.068397999,-4.046263218,-1.351944804
11.02461235,7.089933395,-3.950550079,-1.679761529
11.02936771,7.030112743,-3.768695593,-1.832902193
11.03412302,6.855436802,-3.584448338,-1.684547186
11.03887839,6.484549522,-3.416950703,-1.29451704
11.04363375,5.871986866,-3.297309637,-0.813559711
11.04838906,5.173282623,-3.211168051,-0.3349951804
11.05314443,4.565505505,-3.110669374,-0.03110669367
11.05789979,4.115654945,-2.983849764,0.09571290761
11.06265516,3.991228104,-2.794816732,0.1028913707
11.06741047,4.10608387,-2.502892494,-0.004785645287
11.07216584,4.55354166,-2.132004976,-0.2129612118
11.0769212,5.032105923,-1.871187329,-0.3110669553
11.08167651,5.127819061,-1.581655741,-0.4666004181
11.08643188,5.201996326,-1.39022994,-0.5718846321
11.09118724,5.187639713,-1.282552958,-0.6173482537
11.09594255,5.4652071,-1.107876897,-0.7752745152
11.10069792,6.02752018,-0.8709874153,-1.009771109
11.10545328,6.494120598,-0.7106683254,-1.201196909
11.11020865,6.867401123,-0.6604190469,-1.289731383
11.11496396,7.025327206,-0.6843472719,-1.320838094
11.11971932,7.137789726,-0.7944171429,-1.272981644
11.12447469,7.30768013,-1.021735311,-1.16769743
11.12923,7.448856831,-1.272981644,-1.045663476
11.13398537,7.446464062,-1.569691658,-1.016949654
11.13874073,7.341179848,-1.880758643,-1.165304661
11.14349604,7.219145775,-2.134397745,-1.533799291
11.14825141,6.93679285,-2.352144718,-2.158325911
11.15300677,6.479763508,-2.529213428,-2.902493954
11.15776214,6.082555294,-2.596212626,-3.536591768
11.16251745,5.845665932,-2.593819857,-3.921836376
11.16727282,5.704489231,-2.596212626,-3.967299938
11.17202818,5.541777134,-2.610569477,-3.704089403
11.17678354,5.376672268,-2.665604353,-3.136990547
11.18153886,5.137390137,-2.720639229,-2.533999205
11.18629422,4.840680122,-2.742174864,-2.158325911
11.19104959,4.443471432,-2.778067112,-1.899901152
11.1958049,4.072584152,-2.761317253,-1.624726534
11.20056026,3.792623997,-2.801995277,-1.146162033
11.20531563,3.708875179,-2.90967226,-0.5934200287
11.21007094,3.933800459,-3.074777126,-0.07896314561
11.2148263,4.460221291,-3.306880951,0.1818545163
11.21958167,5.127819061,-3.538984776,0.1339980662
11.22433703,5.637490273,-3.708875179,-0.02632104978
11.22909235,5.979663849,-3.830909014,-0.08853443712
11.23384771,6.405586243,-3.897907972,-0.02871387079
11.23860308,7.013363361,-3.940979004,-0.02632104978
11.24335839,7.719245911,-3.919443607,-0.3182454109
11.24811375,8.396414757,-3.936193228,-0.813559711
11.25286912,8.807980537,-4.007977962,-1.320838094
11.25762448,8.994620323,-4.098905087,-1.684547186
11.26237979,8.989834785,-4.192225456,-1.830509305
11.26713516,8.807980537,-4.307080746,-1.837687731
11.27189052,8.626125336,-4.486542225,-1.758724689
11.27664584,8.475378036,-4.630111694,-1.574477315
11.2814012,8.554341316,-4.79521656,-1.490728498
11.28615656,8.937192917,-4.93878603,-1.670190215
11.29091193,9.652647018,-5.120640278,-2.170290232
11.29566724,10.49491978,-5.237888813,-2.706282377
11.30042261,11.23430252,-5.355136871,-2.883351326
11.30517797,11.71047401,-5.429314613,-2.603390932
11.30993328,11.96889877,-5.505885124,-2.232503414
11.31468865,12.09332561,-5.601597786,-2.031506538
11.31944401,12.0598259,-5.673382282,-1.794616938
11.32419938,11.93300629,-5.826523304,-1.512263894
11.32895469,11.5142622,-5.982056618,-1.35912323
11.33371005,10.8107729,-6.190232277,-1.445264935
11.33846542,10.02831936,-6.331408501,-1.50269258
11.34322078,9.2865448,-6.388836384,-1.418943882
11.3479761,8.673981667,-6.455835342,-1.292124271
11.35273146,8.197810173,-6.530013084,-1.21555388
11.35748682,7.867600918,-6.608976364,-1.203589797
11.36224219,7.659425259,-6.721438885,-1.1820544
11.3669975,7.570890903,-6.812366009,-1.138983607
11.37175287,7.463213921,-6.903293133,-1.014556766
11.37650823,7.381857872,-6.975078106,-0.7728816867
11.38126354,7.290930748,-7.034898758,-0.3732803464
11.38601891,7.221538544,-7.046862602,0.08135596663
11.39077427,7.202396393,-7.113861561,0.35174492
11.39552964,7.252645493,-7.200003147,0.3086741269
11.40028495,7.417750359,-7.25743103,0.09571290761
11.40504032,7.515855789,-7.255038261,-0.04307080805
11.40979568,7.613961697,-7.286144733,-0.1387837082
11.41455099,7.51346302,-7.283751965,-0.1674975902
11.41930636,7.403393269,-7.216753006,-0.1746760458
11.42406172,7.334001541,-7.204789162,-0.3086741269
11.42881709,7.355536938,-7.200003147,-0.5192425251
11.4335724,7.341179848,-7.202396393,-0.7369893789
11.43832776,7.240681171,-7.149754047,-0.9379864931
11.44308313,6.977470875,-7.061219692,-1.081555843
11.44783849,6.589833736,-6.896114826,-1.115055323
11.4525938,6.1399827,-6.697510719,-0.9403793216
11.45734917,5.694917679,-6.486942291,-0.6245267391
11.46210453,5.434100151,-6.29790926,-0.2967100143
11.4668599,5.288137913,-6.137589931,-0.1363908947
11.47161521,5.261816978,-6.077769279,-0.2129612118
11.47637058,5.364708424,-6.029912949,-0.4378865361
11.48112594,5.62791872,-6.082555294,-0.8183453679
11.48588125,5.974878311,-6.163911343,-1.105484009
11.49063662,6.31226635,-6.250052929,-1.26341033
11.49539198,6.597012043,-6.386443615,-1.222732425
11.50014735,6.821937561,-6.585047722,-0.9978070259
11.50490266,7.030112743,-6.752545357,-0.732203722
11.50965802,7.123433113,-6.965506554,-0.4378865361
11.51441339,7.166503906,-7.252645493,-0.1651047617
11.51916875,7.211967468,-7.587640762,-0.04307080805
11.52392407,7.295716286,-7.925028801,-0.1387837082
11.52867943,7.398607731,-8.312665939,-0.4163511395
11.53343479,7.616354465,-8.776873589,-0.8757730722
11.53819016,7.901100159,-9.150154114,-1.373480201
11.54294547,8.20498848,-9.46361351,-1.679761529
11.54770084,8.43948555,-9.793823242,-1.696511269
11.5524562,8.659625053,-9.978070259,-1.564906001
11.55721157,8.855836868,-10.11446095,-1.622333765
11.56196688,9.006584167,-10.18624592,-1.859223247
11.56672224,9.205188751,-10.16231823,-2.215753794
11.57147761,9.372686386,-10.04746246,-2.450250387
11.57623297,9.305686951,-9.803394318,-2.325823545
11.58098828,8.72423172,-9.382257462,-1.823330879
11.58574365,7.96331358,-8.829515457,-1.220339537
11.59049901,7.264609337,-8.33898735,-0.7298108935
11.59525432,6.814758778,-7.84845829,-0.457029134
11.60000969,6.400800705,-7.293323517,-0.6221339107
11.60476505,5.891129494,-6.726224422,-1.208375454
11.60952042,5.237888813,-6.166304111,-2.304288149
11.61427578,4.613361835,-5.766702652,-3.517449379
11.6190311,4.067798615,-5.618347645,-4.235296249
11.62378646,3.897907972,-5.855237007,-3.572484255
11.62854183,4.242474556,-6.386443615,-1.732403636
11.63329714,5.053641319,-7.11625433,0.4283152521
11.6380525,5.96291399,-8.044670105,2.263610125
11.64280787,6.690331936,-9.17886734,3.299702406
11.64756323,6.900900364,-10.13838959,3.416950703
11.65231854,7.010970116,-11.27498055,2.579462767
11.65707391,6.941578388,-12.32542896,0.8422735929
11.66182927,6.721438885,-13.16770267,-1.225125194
11.66658464,6.240481377,-13.68215942,-2.227717876
11.67133995,5.491528034,-13.73240948,-2.04586339
11.67609532,4.87417984,-13.41416359,-1.478764415
11.68085068,4.405186653,-12.95713425,-1.131805062
11.68560604,4.151547432,-12.4115715,-1.234696507
11.69036141,4.230510235,-11.87318611,-1.756331801
11.69511672,4.93878603,-11.526227,-2.20618248
11.69987209,6.029912949,-11.31805134,-2.057827473
11.70462745,7.235895634,-11.17448139,-1.234696507
11.70938282,8.123632431,-10.96869946,-0.1459621787
11.71413813,8.475378036,-10.58824062,0.890130043
11.71889349,8.319844246,-10.04506969,1.529013634
11.72364886,7.994420528,-9.394221306,1.696511269
11.72840422,7.487142086,-8.628518105,1.392622828
11.73315953,6.994220734,-7.865208149,0.7824530005
11.7379149,6.479763508,-7.094718933,0.1052841991
11.74267026,6.061019897,-6.295516491,-0.3732803464
11.74742563,5.682953835,-5.570491314,-0.7058826685
11.75218094,5.295316696,-4.936393261,-0.9140582681
11.7569363,4.993820667,-4.338187218,-1.131805062
11.76169167,4.790431023,-3.840480328,-1.392622828
11.76644703,4.637290478,-3.385843992,-1.658226132
11.7712024,4.161118507,-3.127419233,-1.768295884
11.77595771,3.7256248,-3.187239647,-1.521835208
11.78071308,3.936193228,-3.704089403,-0.6747759581
11.78546844,4.599005222,-4.620540619,0.5551348329
11.7902238,5.170889854,-5.869594097,1.615155339
11.79497912,5.788238049,-7.396214962,2.266003132
11.79973448,6.388836384,-8.963513374,2.400001049
11.80448985,6.55394125,-10.39681435,1.907079697
11.80924521,6.180660725,-11.72243786,1.153340459
11.81400052,5.520241737,-12.6125679,0.5479564071
11.81875589,4.656432629,-13.20598793,0.3828516304
11.82351125,3.742374659,-13.84487152,0.3924229145
11.82826662,3.086741209,-14.06740475,0.2895315289
11.83302193,2.773281336,-14.13918877,-0.09810572863
11.83777729,2.849851847,-13.97647667,-0.8829515576
11.84253266,3.199203968,-13.62233925,-1.663011789
11.84728802,3.914657831,-12.887743,-1.954936147
11.85204339,4.68275404,-11.8468647,-1.739582062
11.8567987,5.233103275,-10.56909752,-1.299302697
11.86155406,5.37188673,-9.327222824,-0.7704889178
11.86630943,5.268995285,-8.231309891,-0.3110669553
11.87106479,5.00339222,-7.267002583,-0.08135596663
11.87582011,4.807180882,-6.465406895,-0.1196411327
11.88057547,4.694717884,-5.7571311,-0.3014956415
11.88533084,4.639683247,-5.14456892,-0.5072783828
11.8900862,4.500899315,-4.575077057,-0.6293123364
11.89484151,4.201796532,-4.036691666,-0.6101697683
