Time (s),Acceleration x (m/s^2),Acceleration y (m/s^2),Acceleration z (m/s^2)
6.00336672,0.07161082853137174,2.60431928599863,-0.2916488000911546
6.008366753,1.3362758341444574,3.2237726493325245,-3.079884550750123
6.013366786,2.599211236985255,3.924376934727463,-5.7860321589117225
6.018366819,3.8306286178967848,4.7005210672888715,-8.345283385511696
6.023366819,5.001049296656412,5.541892352356156,-10.698811735523433
6.028366819,6.082116299483467,6.433085961280082,-12.795895336621609
6.033366785,7.047370474510305,7.353440576181857,-14.595635723046223
6.038366785,7.872968425203002,8.277134462805666,-16.068195341571233
6.043366785,8.538323235208692,9.173564051181957,-17.195506526065373
6.048366818,9.026652462662355,10.00801310386142,-17.97143612218943
6.053366818,9.325421349826355,10.742605493806325,-18.401420417568797
6.058366818,9.426672531311777,11.337519300670134,-18.50161234426181
6.063366784,9.327236729938711,11.752425183640149,-18.297605257734393
6.06836675,9.02882202008883,11.948098545212329,-17.822813967731765
6.073366716,8.537982163738619,11.888143443677542,-17.11660426383179
6.078366716,7.8659671527366015,11.540756968164617,-16.22226792904395
6.083366749,7.0284612979518055,10.88045623146021,-15.184942128034134
6.088366782,6.045215968575944,9.889686658652735,-14.049570475863163
6.093366815,4.93958549115338,8.56023024429861,-12.85899799732648
6.098366815,3.7379759174483564,6.894336212401817,-11.652283518425442
6.103367481,2.469217519075768,4.905504165605238,-10.463300900063416
6.108375227,1.1638730712592962,2.618861259118022,-9.319685169639143
6.113375193,-0.14650474288912618,0.07108984990682868,-8.242161365585735
6.118375193,-1.4301522188064384,-2.6901200973080277,-7.244273340280455
6.123375226,-2.655894047744759,-5.607099516286151,-6.3325078716246646
6.128375259,-3.793946409554745,-8.613693812851977,-5.506787716837578
6.133376492,-4.8167057755760005,-11.637183446362354,-4.761287411736472
6.138376492,-5.69950424751145,-14.600571356126341,-4.085509148109767
6.143376492,-6.421310966909308,-17.42515602641306,-3.4655439403602606
6.148376492,-6.965357913359149,-20.033290141037316,-2.885436027313991
6.153375825,-7.319667542629195,-22.351209433554196,-2.3285661600094474
6.158374891,-7.477459529442076,-24.3118058382508,-1.7789719090036773
6.163373991,-7.437414699212895,-25.857214659058034,-1.222530000632281
6.168373091,-7.203776354304244,-26.9410882528235,-0.6479365292253175
6.173372224,-6.786272916474605,-27.530439353331456,-0.04743528027449712
6.178372124,-6.199851449613282,-27.606955796175814,0.582738169332454
6.183372124,-5.464219497474085,-27.167714523402093,1.2422092730430077
6.188371424,-4.603202784251794,-26.225255019095137,1.9266064512591228
6.19337139,-3.643938058385385,-24.80700849403744,2.6279647289281862
6.198371356,-2.6159322853561413,-22.954116071700412,3.335346872368741
6.203371356,-1.5500295852188721,-20.71970336770081,4.0356254861260865
6.208371389,-0.4773340850122316,-18.16670701465797,4.714362595260219
6.213371422,0.571860531653687,-15.365368819992366,5.356721840190867
6.218370788,1.5690853045965485,-12.390524672575657,5.94835201349179
6.223370788,2.4886091334726244,-9.318818381561801,6.4761883229530515
6.228370788,3.3082127301846795,-6.2259662620684475,6.929128328159075
6.233370088,4.009794035429597,-3.1841877022574527,7.2985517737318295
6.238369154,4.579785529723336,-0.25990153064150573,7.578666397764355
6.243368454,5.009374078876409,2.488230848180215,7.76667423875632
6.248368487,5.2945239711135565,5.010855550471574,7.862764215033558
6.253367853,5.435813102836655,7.269031453005287,7.869946281460983
6.258367853,5.438100433143561,9.234874287460944,7.7937500072712975
6.263367853,5.310049528887154,10.89174406458692,7.641815869245413
6.268367453,5.063538027208042,12.233999212879626,7.423410911030298
6.273367419,4.712986017316773,13.26635719954933,7.148901745724961
6.278367385,4.2746376724695185,14.002914745323261,6.829217323252826
6.283366151,3.7658300518813212,14.465890711369846,6.475331676070779
6.288366184,3.2042810419425174,14.684161170441243,6.097793274278213
6.293366217,2.6074251709309597,14.691659094597615,5.706322956039754
6.29836625,1.9918217813143524,14.525710672434647,5.309496941923775
6.303366916,1.3726550466584475,14.225376813921129,4.914525481504476
6.308367816,0.763339841894281,13.82986232390113,4.5271315112979496
6.313368682,0.1752417825227297,13.37704702311386,4.15152762923327
6.318369582,-0.382485898071053,12.902183318196904,3.7904840257031984
6.323370482,-0.9029513173446417,12.436793939441896,3.4454750604326616
6.328370615,-1.3814662812316143,12.007792336143304,3.1168882064552004
6.333370748,-1.8153936484708835,11.636837068934513,2.8042762986836065
6.338371414,-2.2039146619780268,11.33992094507653,2.5066325394125197
6.343371414,-2.547733517426022,11.127186033128027,2.2226675486689684
6.348371414,-2.848737771066105,11.00294743373845,1.951068840818559
6.353371414,-3.1096335435746427,10.965902071493526,1.6907253311336528
6.35837138,-3.333573963136534,11.009494067638991,1.4409026589517189
6.363371346,-3.5237981315961253,11.122405747961562,1.2013590817309274
6.368371612,-3.68329640499876,11.289143363608224,0.9723962732788041
6.373371645,-3.8145162279545555,11.490689302772939,0.7548443276763727
6.378371011,-3.9191212187846642,11.705197579784189,0.5499852660385022
6.383371677,-3.9978144958015083,11.90871572228623,0.35942384283147855
6.38837191,-4.0502350883473754,12.075922532996328,0.184917890623763
6.39337191,-4.074933497230446,12.18087640411538,0.028182420502188166
6.39837191,-4.069429042923501,12.197772146448665,-0.10931791349893136
6.40337191,-4.030347707925536,12.101705344179816,-0.22657439022368364
6.408371943,-3.953634967168688,11.869442081859027,-0.32322620614706965
6.413371943,-3.8348338570659783,11.480188741477308,-0.39972950343701513
6.418372309,-3.669414531462639,10.916351783471505,-0.4574959163463806
6.423372309,-3.4531381290711316,10.164271501644908,-0.49899397889598845
6.428372309,-3.182435333790587,9.214907432908344,-0.5278066160062774
6.433372309,-2.854778877742042,8.06444742078549,-0.5486374728185871
6.438372275,-2.469029496073008,6.714808304289288,-0.5672589529602688
6.443372275,-2.02573628736325,5.173994571431251,-0.5903961659976195
6.448372275,-1.5273747175647525,3.456282417245149,-0.6255436030103557
6.453372308,-0.9785082909953664,1.5822004781887438,-0.6807149910654148
6.458372308,-0.3858629192739662,-0.42171515848219443,-0.7641310910596362
6.463372308,0.24169393470444267,-2.5234055912620006,-0.8838548601960329
6.468372274,0.8932741392499511,-4.686016942436546,-1.0473878862988777
6.47337224,1.5561911008694678,-6.868862848269106,-1.2612456209033343
6.478372206,2.2162803852680937,-9.028599499780267,-1.5305311911866044
6.483372072,2.858310961340705,-11.120576933284086,-1.8585284923070946
6.488372072,3.4664741462521413,-13.100316704697544,-2.2463352290020757
6.493372105,4.024932451042142,-14.92505452097197,-2.692555860080324
6.498372138,4.518406260626797,-16.555278000880666,-3.193073030087254
6.503372171,4.932772871549757,-17.956185375721294,-3.7409139843742616
6.508371771,5.25565006868369,-19.09899121707548,-4.326225615149718
6.513371771,5.476935370938066,-19.962010447757013,-4.936368177883613
6.518372137,5.5892725401133445,-20.53146179816524,-5.556133411170555
6.523372137,5.588419111725626,-20.801945958770585,-6.168087938157659
6.528372803,5.473492663591871,-20.77657106598228,-6.753037646185835
6.533372903,5.247079230799204,-20.46671767561522,-7.2906034394629895
6.538373569,4.9151944345237055,-19.891455600860994,-7.759893430685392
6.543374235,4.487095991538243,-19.076644352852192,-8.140251295236084
6.548374201,3.9749545992822943,-18.05376594233389,-8.412055269757529
6.553374167,3.393398026866687,-16.858552305720053,-8.55753748357525
6.558374133,2.7589500136933416,-15.529478832164672,-8.56158946993781
6.563374133,2.08939091671383,-14.106200023934939,-8.412517274625541
6.568374166,1.4030707615583442,-12.628003248365246,-8.10270886885168
6.573374199,0.718207365079723,-11.132352200596491,-7.629177753808137
6.578374232,0.05220250613825564,-9.653583690304897,-6.993949796700888
6.583374232,-0.57899220632567,-8.22181042989894,-6.20426545513692
6.588374232,-1.1614309537240746,-6.8620694510214735,-5.2725765171004095
6.593374198,-1.6836261659186422,-5.593741453450962,-4.216325092812838
6.598374164,-2.136878441790464,-4.430251619327066,-3.057502548742607
6.60337413,-2.5154706874137958,-3.3790479741141337,-1.821997038292707
6.60837413,-2.8167199129507137,-2.441839938658561,-0.5387498864075198
6.61337413,-3.0408870500866523,-1.6150679230177991,0.7612471657054471
6.618374163,-3.190951993638743,-0.8905652395833168,2.046070680436712
6.623374196,-3.2722675444584564,-0.2563667508379877,3.284047408685921
6.628374229,-3.2921117661774764,0.30238519129518315,4.444939557924235
6.633374229,-3.2591632009896574,0.8024878288555246,5.5010704715047165
6.638374229,-3.182927151809121,1.261726620239323,6.428329464967342
6.643374195,-3.073143570892566,1.697969916520568,7.207001921184266
6.648374195,-2.9392077935650227,2.1283484368686025,7.82238350896973
6.653374195,-2.789634343521429,2.568551080571321,8.265154063187685
6.658374628,-2.6315914156790092,3.032260250447671,8.531504866208955
6.663374628,-2.470529664217609,3.5307406771857996,8.62303034327876
6.668374628,-2.309923892766029,4.072586153607805,8.546409624286513
6.673374594,-2.1511404501653644,4.663619109559913,8.312913862102219
6.678373894,-1.9934368514062393,5.306929100767407,7.937781137773367
6.683373127,-1.8340936528411182,6.003028551731941,7.439502301536421
6.688373127,-1.6686721994212719,6.750097943885412,6.8390586975750765
6.69337316,-1.4913857743584702,7.54428846299492,6.159147171575888
6.698373193,-1.2955661044606972,8.380048201324806,5.423420017487804
6.703373226,-1.0742022639418467,9.250438523660248,4.655758692388103
6.708373226,-0.8205249385923589,10.14741021848229,3.8795915031078527
6.713373226,-0.5286059479123597,11.0620145429942,3.1172585510745017
6.718373192,-0.19394110742685106,11.984532079750915,2.3894235277727023
6.723373192,0.18601576729938504,12.904512027038693,1.7145323394958505
6.728373192,0.6113984072676014,13.810725328605177,1.108322528697721
6.733372892,1.0795805426482805,14.691045795094578,0.5833933006206217
6.738372925,1.5849577045258167,15.532282932431205,0.14885147492339817
6.743372925,2.1188747851403056,16.31999763565748,-0.18994786101948577
6.748372925,2.6697090749664896,17.038336606860714,-0.4315466944957235
6.753372925,3.2231115003098636,17.669922997863104,-0.578398630139385
6.758372925,3.7624017161061976,18.195839315321965,-0.6367409464215098
6.763372925,4.269105728071237,18.595734225347957,-0.6163194732675901
6.768372891,4.7236179956736155,18.848077881242787,-0.5299696876102986
6.773372891,5.1059637200611006,18.93058120921616,-0.39306587693469064
6.778372891,5.396631514116435,18.820783755272974,-0.22285838160718024
6.783372924,5.577442180033633,18.496802848485327,-0.037726137983120155
6.788372924,5.632416194286388,17.938224686441313,0.14362274361144842
6.793372924,5.548601022903289,17.127106257419445,0.30296659677168025
6.79837289,5.316819779964344,16.049046498762568,0.4233661362030248
6.80337289,4.93230502847483,14.694276348927518,0.48990735214748987
6.80837289,4.3951855126673856,13.058710851060395,0.4903620869451971
6.813372923,3.710798986812075,11.144902611082182,0.41574148243694864
6.818372923,2.8898107637802575,8.96283508210281,0.26072161514955633
6.823372923,1.948124914748783,6.5304966625206236,0.0239243350055777
6.828373589,0.9065830176039636,3.8741826458953166,-0.29196012249372705
6.833374255,-0.20954622969159667,1.0284816322248849,-0.6802183225698933
6.838374255,-1.371274597170243,-1.9640841555560469,-1.1303314877371773
6.843374221,-2.5467786761261126,-5.053779623552491,-1.6283648314925652
6.848374221,-3.7024325263777342,-8.18473600206533,-2.1575195049008244
6.853374221,-4.803952923716834,-11.296367096361923,-2.698829344271158
6.858374254,-5.817615398888014,-14.325082164831246,-3.231975310130751
6.863374287,-6.711494496806722,-17.206236586060257,-3.736182053862229
6.868374287,-7.4566784905461585,-19.87624468606434,-4.191154471446465
6.873374253,-8.028407358739452,-22.27476503220975,-4.578008047302672
6.878374219,-8.40708335751428,-24.34685835385246,-4.8801455394327755
6.883374519,-8.579106152116978,-26.045013219848848,-5.084034170752443
6.888374485,-8.537489373851638,-27.330935758829856,-5.1798418984930565
6.893374485,-8.282222771383811,-28.17700777995599,-5.161898330751876
6.898374518,-7.820353922450034,-28.567332801200013,-5.028955100842642
6.903374551,-7.165775778573549,-28.498311156627967,-4.784231563214028
6.908373917,-6.338720995460785,-27.9787121755459,-4.4352440651687175
6.91337325,-5.364980537601018,-27.029241238400296,-3.9934301390159814
6.91837325,-4.274881197657791,-25.681629504936488,-3.4735917218821992
6.923373183,-3.1020723981740854,-23.97730129297972,-2.893192514353551
6.928373183,-1.8821846760438663,-21.965695967614707,-2.271552400391516
6.933372949,-0.6514290583387904,-19.702336300971428,-1.628985615555991
6.938372982,0.5547921610574899,-17.246743214527896,-0.9859290990465938
6.943372982,1.7031962881484781,-14.660298076033948,-0.36210393333101604
6.948372982,2.7637932124438263,-12.004149190259428,0.22425302935749641
6.953372948,3.71087131208343,-9.337249869353547,0.7570573983129743
6.958372914,4.523759379446847,-6.714602604084382,1.2229231283305027
6.96337288,5.187340993324364,-4.185768467409099,1.611571652054769
6.96837288,5.692311237091772,-1.7936840072155158,1.9160972783054844
6.973372913,6.035178521820959,0.4261894954500014,2.1330885954253187
6.978372946,6.218025937915393,2.4463765231070984,2.2626114237819834
6.983372979,6.248056618493441,4.247565535955927,2.308063626850619
6.988373012,6.136955775466672,5.818476917136926,2.2759157731795487
6.993373012,5.900108193553704,7.15545442422833,2.1753542801859727
6.998372978,5.555713961705578,8.26182302991449,2.017845369625307
7.003372944,5.12384709975657,9.147062267456974,1.816639052647133
7.008372944,4.625501595233211,9.825847479324594,1.5862325579691732
7.013372944,4.081667358268456,10.317011766918977,1.3418122280927582
7.018372977,3.5124749344192705,10.642479157217222,1.0986920467687338
7.023372977,2.936442724764798,10.826214868906463,0.8717657317244893
7.028372977,2.3698542188407345,10.893232016730174,0.6749878073080731
7.033372977,1.8262856437826953,10.86868615080581,0.5208973074699429
7.038372977,1.316296790012196,10.777080233652496,0.4201957908954485
7.043372977,0.8472899217228059,10.641593566651721,0.38138924774241983
7.048372943,0.4235339540234424,10.483539335649104,0.4105013528320873
7.053372943,0.04634380369768059,10.321947365054028,0.5108635014217728
7.058373609,-0.2856017048250416,10.173261802054908,0.6829852515044535
7.063374309,-0.5758255347493879,10.051138175014474,0.924507232690317
7.068374309,-0.829528302387934,9.96632092085393,1.2302372598339575
7.073374342,-1.0530041545617261,9.926581411121216,1.5922692967312744
7.078374308,-1.253028703349305,9.936698035851613,2.0001840329804916
7.083374508,-1.4362522116839322,9.998463992603778,2.4413290451934206
7.088374474,-1.6086311261727877,10.110714388132441,2.9011754802289285
7.093374474,-1.7749293592171929,10.269370878469164,3.3637464399304204
7.098374507,-1.9383171500617733,10.467508145113396,3.8121093874021796
7.10337454,-2.1000898802193375,10.695451252903558,4.228920910506705
7.108374573,-2.2595221951334787,10.940916015389364,4.597007448350716
7.113374606,-2.4138647339207155,11.189205811877779,4.899960766085558
7.118374606,-2.558482315912066,11.423477881708301,5.122722815559653
7.123374572,-2.6871241167491893,11.625090043721238,5.252131930972277
7.128374538,-2.7923085930628155,11.774035150186004,5.277401878565528
7.133375704,-2.865799077532633,11.849465534248775,5.190507798073853
7.138375704,-2.899140592170351,11.830303535702848,4.986458786228981
7.143375737,-2.884225113320754,11.695927377504606,4.663445254616174
7.148375737,-2.813851671118775,11.42691486107069,4.222858988937553
7.15337507,-2.6822492726318714,11.005821208970188,3.6691934827089487
7.158374136,-2.485534297955862,10.417962404131577,3.0098402560913247
7.163373202,-2.22207912070179,9.652171828607548,2.2548026433735116
7.168372268,-1.8927746143589645,8.7014960165072,1.4163516367732139
7.173371368,-1.5011753562636074,7.563794959606532,0.5086489433577529
7.178371401,-1.0535222785694602,6.2422136403172335,-0.4526391997283526
7.183371434,-0.5586429590841535,4.7454942653279275,-1.4507173580844757
7.188371467,-0.027734583710317038,3.0881029712372334,-2.4680103360241574
7.193371467,0.5259611812064255,1.2901505330333107,-3.486478006442154
7.198371467,1.087578593474181,-0.6229061605936079,-4.487893786702717
7.203371433,1.6411276847015874,-2.620786342865677,-5.454091508618228
7.208371433,2.17005510660057,-4.669125532073491,-6.3671902914777005
7.213371433,2.657845207074793,-6.730416364114836,-7.209809558545509
7.218371466,3.0886386046675804,-8.765120811419997,-7.965286539874938
7.223371466,3.447844105017317,-10.732912890302833,-8.617906908126763
7.228370799,3.7227191357483362,-12.594000821752593,-9.153156106129444
7.233370799,3.9028941497825635,-14.310469946183131,-9.557994900390351
7.238370565,3.980817780277956,-15.847583316435237,-9.821158162064725
7.243370565,3.9521019723070605,-17.17497641047381,-9.933471251082985
7.248370531,3.8157498516430715,-18.267686168254752,-9.888174026842226
7.253370497,3.5742536375368,-19.106962569355698,-9.681238710267738
7.258370497,3.233555308006665,-19.68082279759621,-9.311664773574607
7.263370497,2.8028687564029036,-19.984322807731242,-8.781731884501033
7.26837053,2.2943685450228357,-20.01953756362552,-8.09719082418378
7.27337053,1.7227567049071322,-19.795257889878975,-7.267372405101592
7.27837053,1.104724941015497,-19.326427326581282,-6.305195926504904
7.28336933,0.45833469216353867,-18.63335543263006,-5.227061716462089
7.288369296,-0.1976585122577254,-17.740753923404448,-4.052616719495753
7.293369262,-0.8445072066301934,-16.67664856383144,-2.804387644273576
7.298369262,-1.4641700152455421,-15.471222861881737,-1.5072826423371195
7.303369962,-2.0399747942202766,-14.155649472630998,-0.1879696658404212
7.308370895,-2.5572173483588188,-12.760962120599054,1.1258526568908058
7.313371828,-3.003668690946413,-11.317015218720886,2.4062679094799484
7.318372728,-3.3699675405729494,-9.851570758018577,3.626007216519432
7.323373628,-3.6498796030176326,-8.389543047169706,4.759328980469829
7.328373594,-3.840411098095961,-6.9524220380085575,5.782870006890058
7.333374727,-3.9417709049353626,-5.5578857592079665,6.676422779906956
7.338374727,-3.957183473116217,-4.219602257270038,7.423595235105835
7.34337476,-3.8925629118079454,-2.9472119251681574,8.012315326701954
7.34837476,-3.7560667939320123,-1.746472746311747,8.43515265257617
7.35337476,-3.557555449130028,-0.6195443054269237,8.689442090144174
7.358374726,-3.307988194723073,0.43461822645316933,8.777208001361442
7.363374692,-3.0187915767352727,1.4197913692082058,8.70490039297534
7.368374658,-2.7012359820967515,2.3419633568582037,8.482965326668932
7.373374658,-2.3658558842034245,3.2087966126103034,8.125280341298955
7.378375324,-2.021945676134838,4.029098877835841,7.648491541371799
7.383375357,-1.6771578908396858,4.812324318834107,7.071292272201862
7.388375623,-1.3372240572905176,5.568120044664681,6.413683849904968
7.393375656,-1.0058109666909514,6.305926980081114,5.696256601146827
7.398375656,-0.6845171869881392,7.034637457302791,4.939524637886951
7.403375656,-0.37300671617614617,7.762305789559094,4.163340708239121
7.408375622,-0.06926912396252466,8.495903025219414,3.386408666703932
7.413375622,0.23001124377886523,9.24110353576198,2.625901296782135
7.418375622,0.5290001628558969,10.00208943311012,1.8971812776005512
7.423375655,0.8322002167508421,10.781359274121472,1.2136141112315908
7.428375655,1.1439101110156062,11.579530176117396,0.5864551416451366
7.433374988,1.4676890644983762,12.395127248293381,0.02478974427348487
7.438374321,1.805858576577456,13.224360789335737,-0.46449288764466756
7.443374321,2.1590718373413336,14.060899307035342,-0.8767066669621968
