Time (s),Acceleration x (m/s^2),Acceleration y (m/s^2),Acceleration z (m/s^2)
6.004528617,0.7254431248,-11.57147598,3.193865061
6.009528617,0.7182605267,-11.82765579,2.932897091
6.014528583,0.7038952708,-11.99285603,2.846705914
6.019528583,0.624886632,-12.22509289,3.01190567
6.024528583,0.4668693244,-12.30170727,3.229778051
6.029528616,0.3016694188,-12.36156273,3.445256233
6.034528616,-0.02633621916,-12.29452515,3.442862034
6.039527949,-0.3351882398,-12.24664116,3.378218651
6.044527915,-0.5339069963,-12.06707573,3.241749048
6.049527881,-0.6009446383,-11.75822353,2.999934673
6.054527847,-0.5913678408,-11.49246788,2.93768549
6.059527847,-0.3854664862,-10.96334839,2.748543501
6.06452788,-0.2106897533,-10.61858368,2.592920542
6.06952768,0.174776718,-10.10861874,2.336740971
6.074527713,0.5099649429,-9.771036148,2.214636564
6.079527713,0.8331822157,-9.481337547,2.190694571
6.084527713,1.122880578,-9.249100685,2.315192938
6.089527679,1.395819545,-9.043199539,2.499546528
6.094527645,1.620874524,-8.995314598,2.671929121
6.099527645,1.843535304,-9.004891396,2.853888512
6.104527978,1.968033791,-9.014469147,2.966415882
6.109528011,2.128445387,-9.131784439,2.999934673
6.114528011,2.111685991,-9.256282806,2.894589901
6.119528011,2.027888775,-9.519645691,2.86107111
6.124528011,1.951274395,-9.699210167,2.959233284
6.129528011,1.893813491,-9.878775597,3.021482468
6.134528011,1.838746905,-9.998485565,3.040636063
6.139527977,1.766920805,-10.09664822,2.959233284
6.144527977,1.707065821,-10.18762779,2.849100113
6.149527977,1.663970232,-10.20917511,2.71502471
6.15452801,1.613691926,-10.21156979,2.63841033
6.15952801,1.520318031,-10.22114658,2.767697096
6.16452801,1.522712231,-10.22354031,2.853888512
6.169527976,1.335964561,-10.29057789,2.679111719
6.174527976,1.146822572,-10.33127975,2.49236393
6.179527976,1.022324085,-10.39592266,2.257732153
6.184528009,0.8978256583,-10.41747093,2.003946781
6.189528675,0.758961916,-10.32170296,1.800439715
6.194528675,0.6584054828,-10.21875191,1.702277422
6.199528675,0.6177040339,-10.03200436,1.649604917
6.204528675,0.6631938815,-9.912294388,1.594538331
6.209528675,0.7709329724,-9.696816444,1.443703651
6.214528641,0.9002198577,-9.548376083,1.386242747
6.219528841,1.288080573,-9.232340813,1.37427175
6.224528841,1.477222443,-8.980949402,1.33835876
6.229528874,1.647210717,-8.758289337,1.345541358
6.234528907,1.762132406,-8.516474724,1.371877551
6.239528907,1.707065821,-8.332120895,1.319205165
6.244528907,1.740584612,-8.236352921,1.271321058
6.249528873,1.824381709,-8.219594002,1.230619669
6.254528539,1.941697598,-8.114249229,1.369483352
6.259528505,1.987187386,-8.095095634,1.575384736
6.264528505,2.020706177,-8.107066154,1.678335428
6.269528538,1.968033791,-8.169315338,1.697489023
6.274528571,1.944091797,-8.284236908,1.742978811
6.279528604,1.848323703,-8.303390503,1.81959331
6.284528604,1.812410712,-8.348880768,1.963245392
6.289528604,1.881842494,-8.425495148,2.260126352
6.29452857,1.790862918,-8.459013939,2.456450939
6.29952857,1.731007814,-8.468590736,2.588132143
6.30452857,1.735796213,-8.423100471,2.504334927
6.309528603,1.752555609,-8.253112793,2.281674147
6.314528603,1.764526606,-8.147768021,2.140416384
6.319528603,1.912967205,-8.095095634,2.145204782
6.324528569,2.181117773,-8.03763485,2.334346771
6.329528535,2.298433542,-7.937077999,2.583343744
6.334528501,2.327163935,-7.824550629,2.834734917
6.339528501,2.324769735,-7.67850399,3.129221678
6.344528501,2.360682964,-7.635408401,3.174711466
6.349528534,1.991975784,-7.589918613,3.019088268
6.354528567,1.668758631,-7.496544838,2.863465309
6.3595286,1.125274777,-7.384017467,2.602497339
6.3645286,0.758961916,-7.326556683,2.432508945
6.3695286,0.3950432837,-7.288249016,2.298433542
6.374528566,0.1388636976,-7.314585686,2.264914751
6.379528566,-0.2274491638,-7.513304234,2.276885748
6.384528566,-0.3591302633,-7.752724171,2.353500366
6.389528599,-0.4884171486,-8.083124161,2.327163935
6.394528599,-0.5339069963,-8.243535995,2.303221941
6.399528599,-0.5985504389,-8.459013939,2.296039343
6.404528599,-0.6272808313,-8.59548378,2.286462545
6.409528599,-0.5937620401,-8.731952667,2.123656988
6.414528599,-0.5363011956,-8.844480515,1.910573006
6.419528565,-0.383072257,-8.971372604,1.723825216
6.424528565,-0.1939303428,-9.112630844,1.608903527
6.429528565,-0.007182605099,-9.294589996,1.608903527
6.434528598,0.09816227108,-9.423876762,1.625662923
6.439528598,0.2513911724,-9.711181641,1.726219416
6.444528598,0.3663128614,-9.936236382,1.824381709
6.449528564,0.4070142806,-10.35043335,1.951274395
6.454528564,0.4788403511,-10.64492035,2.003946781
6.459528564,0.5003881454,-11.07348251,2.015917778
6.464528597,0.5554547906,-11.38233376,1.968033791
6.46952863,0.6105214357,-11.64330196,1.886630893
6.47452863,0.6895300746,-11.8731451,1.836352706
6.47952863,0.8236053586,-12.22748756,1.817199111
6.48452863,0.9337386489,-12.4525423,1.841141105
6.48952863,1.125274777,-12.91222858,1.912967205
6.49452863,1.256955862,-13.27614784,1.934514999
6.499528596,1.510741234,-13.86512089,2.023100376
6.504528596,1.630451322,-14.21706867,2.109291792
6.509528596,1.613691926,-14.60253525,2.128445387
6.514528629,1.45088625,-14.66957283,2.078166962
6.519528629,1.213860273,-14.55465126,1.908178806
6.524528629,0.9816226959,-14.30086613,1.625662923
6.529528595,0.806845963,-13.8220253,1.161187768
6.534528561,0.8236053586,-13.49402046,0.8164227605
6.539528527,1.091755986,-12.96969032,0.2920926213
6.544528527,1.405396342,-12.69196224,0.08379705995
6.54952856,1.948880196,-12.33283234,-0.1268926859
6.554528593,2.437297344,-12.24424648,-0.1580173075
6.559528626,2.983175278,-12.20833397,-0.1795651317
6.564528626,3.521870613,-12.21072769,-0.04070143029
6.569528626,3.945644379,-12.25861168,0.2657563984
6.574528592,4.419696331,-12.41423512,0.8236053586
6.579528592,5.078401089,-12.63450146,1.776497602
6.584528592,5.406406879,-12.72787571,2.533065319
6.589528625,5.806238174,-12.77815342,4.108449936
6.594528658,5.92355442,-12.73266411,5.22684145
6.599528658,5.861305237,-12.65604973,7.237970829
6.604528624,5.624279022,-12.62253094,8.755894661
6.60952859,5.298667431,-12.59619427,9.787796021
6.614528556,4.903624535,-12.69196224,10.40549946
6.619528522,4.429273129,-12.84279728,10.40071106
6.624528522,4.084507942,-12.96490192,10.02961063
6.629528555,3.387795448,-12.89786339,8.791808128
6.634528588,2.731784105,-12.81406689,7.733570576
6.639528621,1.707065821,-12.74224091,5.274725437
6.644528621,1.108515382,-12.62731934,3.67988801
6.649528621,0.1508347094,-12.60577106,2.422932148
6.654528587,0.1628057212,-12.51957989,2.468421936
6.659528587,0.5841852427,-12.66323185,2.183511972
6.664528587,1.295263171,-12.81167221,1.012747288
6.66952862,2.22900176,-13.67597961,-0.895431459
6.67452862,2.48996973,-14.80155373,-1.766920805
6.67952862,3.378218651,-15.82866573,-2.590526342
6.68452862,3.373430252,-15.84781933,-3.08133769
6.68952862,2.71502471,-15.07449245,-3.318363667
6.69452862,2.408566952,-14.69351482,-3.016694069
6.699528586,2.248155355,-13.99440861,-2.329558372
6.704528586,1.915361404,-13.41261673,-1.776497602
6.709528586,1.345541358,-13.03193951,-1.335964561
6.714528619,0.8834604025,-12.81167221,-0.9121908545
6.719528652,0.4740519226,-12.56507015,-0.2920926213
6.724528652,0.5315127969,-12.51718616,0.2298433632
6.729528618,0.490811348,-12.34001446,1.41257906
6.734528584,0.323217243,-12.30649567,2.391807556
6.739528584,0.7565677166,-12.15326691,4.022258759
6.744528584,2.087743998,-11.8085022,5.023334503
6.749528617,3.208230257,-11.48049641,5.542876244
6.754528617,3.677493811,-11.38233376,5.48062706
6.759528617,3.885789394,-11.39909363,4.606443882
6.764528617,4.158728123,-11.24586487,4.153939724
6.769528617,4.113238335,-10.81490803,3.320757866
6.774528617,3.866635799,-10.58027649,2.729389906
6.779527917,2.961627483,-10.154109,2.145204782
6.784527917,2.616862535,-10.04876423,2.11647439
6.789527917,2.250549555,-9.964966774,1.889025092
6.79452795,1.953668594,-9.957783699,1.505952835
6.79952795,1.515529633,-10.09664822,1.206677675
6.80452795,0.8164227605,-10.2522707,1.168370485
6.809527916,0.0191536136,-10.45338345,1.546654344
6.814527916,-0.787692368,-10.41507626,1.965639591
6.819527916,-1.254561663,-10.24508858,2.56658411
6.824527949,-1.218648672,-10.1445322,2.844311714
6.829527949,-0.8283938169,-9.670479774,3.071760893
6.834527949,-0.2992752194,-9.313743591,2.971204281
6.839527949,0.2059013397,-8.585906982,2.336740971
6.844527949,0.4453215301,-7.984961987,1.893813491
6.849527949,0.8212111592,-7.345710278,1.771709204
6.854527915,1.039083481,-6.701669693,1.683123827
6.859527881,1.170764685,-6.071994781,1.517923832
6.864527881,1.252167463,-5.497386456,1.417367458
6.869527881,1.405396342,-4.876988888,1.355118155
6.874527914,1.48679924,-4.560954094,1.352723956
6.879527914,1.833958507,-3.744531393,1.750161409
6.884527914,2.015917778,-3.145981073,1.881842494
6.88952788,1.472434044,-2.887407303,1.33835876
6.894527846,1.204283476,-2.916137695,1.110909581
6.899527812,1.168370485,-2.911349297,1.113303781
6.904527812,1.122880578,-2.846705914,1.395819545
6.909527845,0.8834604025,-2.7533319,1.594538331
6.914527878,0.6177040339,-2.719813108,1.651999116
6.919527911,0.4070142806,-2.564189911,1.745373011
6.924527911,0.4357447028,-2.494758129,1.881842494
6.929528577,0.4788403511,-2.30561614,2.066195965
6.934528543,0.5099649429,-2.284068346,2.128445387
6.939528543,0.5363011956,-2.262520552,2.147598982
6.944528543,0.5075707436,-2.343923569,2.128445387
6.949528576,0.5434837937,-2.509123325,2.073378563
6.954528576,0.4429273009,-2.695871115,2.018311977
6.959528576,0.4477157295,-2.997540474,2.025494576
6.964528542,0.4501099288,-3.102885485,2.025494576
6.969528508,0.5219359994,-3.251325846,2.056619167
6.974528474,0.517147541,-3.268085241,2.123656988
6.979528474,0.6943184733,-3.203441858,2.240972757
6.984528474,0.691924274,-3.112462282,2.355894566
6.989528507,0.5770025849,-2.987963676,2.401384354
6.99452854,0.3878606856,-2.873042107,2.552218914
6.999528573,0.1364694983,-2.846705914,2.770091295
7.004528573,-0.1268926859,-2.808398485,3.095702887
7.009528573,-0.4405331016,-2.892195702,3.670311213
7.014528539,-0.5003881454,-2.985569477,4.039018154
7.019528539,-0.7661445141,-3.172317266,4.510675907
7.024528539,-0.9672574997,-3.34230566,4.709394932
7.029528572,-1.261744261,-3.670311213,5.006575108
7.034528572,-1.395819545,-3.964797974,5.15022707
7.039527905,-1.529894829,-4.220977783,5.085583687
7.044527238,-1.589749932,-4.402936935,5.0353055
7.049527238,-1.510741234,-4.510675907,4.949114323
7.054527238,-1.328781962,-4.582501888,4.817133904
7.059527204,-0.9768342972,-4.644751072,4.551377296
7.064526837,-0.7134721279,-4.685452938,4.438849926
7.069526837,-0.3327940404,-4.809951305,4.290409565
7.07452687,-0.2370259613,-4.901230335,4.42448473
7.079527836,-0.3734954596,-5.164592266,4.38617754
7.084527836,-0.4285621047,-5.576395035,4.314351559
7.089527802,-0.3447650373,-6.194098949,4.692635536
7.094527768,0.1149216816,-7.063194275,5.202899456
7.099527768,0.9935936928,-8.461407661,6.431125164
7.104527801,1.59693253,-9.514857292,7.539640427
7.109527834,2.061407566,-11.58344746,9.668086052
7.114527834,1.941697598,-12.89068127,11.03278065
7.119527834,1.716642618,-14.65999603,13.69992161
7.124527834,1.886630893,-15.41686344,14.65999603
7.129527834,2.470816135,-16.53256035,12.72069263
7.134527834,2.56658411,-17.23406219,8.731952667
7.1395278,2.288856745,-17.48066521,4.022258759
7.1445278,2.391807556,-17.0281601,0.2633621991
7.1495278,3.201047659,-15.49347782,-0.55784899
7.154527833,3.569754839,-14.38945103,0.3543418646
7.159527833,3.392583847,-12.44536018,3.01190567
7.164527833,3.069366693,-11.42782402,4.649539471
7.169527799,2.63601613,-10.08228302,6.335357189
7.174527799,2.281674147,-9.390357971,6.411971569
7.179527799,2.078166962,-8.906729698,5.22684145
7.184527832,1.924938202,-8.578723907,3.107673883
7.189528498,2.04464817,-8.463802338,1.41018486
7.194529164,1.960851192,-8.296208382,0.7757213712
7.199529164,1.623268723,-8.233959198,1.407790542
7.204529164,1.424550056,-8.238747597,2.013523579
7.209529164,1.118092179,-8.26268959,2.748543501
7.214529497,0.9145850539,-8.406341553,2.885013103
7.219529463,0.7062895298,-8.830115318,2.767697096
7.224529463,0.5267243981,-9.196428299,2.422932148
7.229528529,0.4381389022,-9.586683273,2.056619167
7.234528562,0.3351882398,-9.91468811,1.817199111
7.239528562,0.2585737705,-10.1636858,1.845929503
7.244528562,0.14844051,-10.38155746,2.11647439
7.249528528,0.1675941199,-10.64013195,2.458845139
7.254527628,0.1843535304,-10.76223564,2.662352324
7.259527594,0.2681505978,-10.95137787,2.944868088
7.264527594,0.2849099934,-11.07108784,3.136404276
7.269527627,0.174776718,-11.31769085,3.507505417
7.27452766,0.1197100878,-11.53316879,3.758896589
7.279527693,0.0718260482,-11.77258873,3.8642416
7.284527693,0.117315881,-12.01679802,3.809175014
7.289527693,0.3447650373,-12.0742588,3.483563423
7.294527659,0.5219359994,-11.99524975,3.251325846
7.299527659,0.7852981687,-11.72709942,2.851494312
7.304527659,0.9385270476,-11.48049641,2.612074137
7.309527692,1.046266198,-11.08305931,2.394201756
7.314527692,1.096544385,-10.86279202,2.296039343
7.319527692,1.158793569,-10.55394077,2.30561614
7.324527658,1.242590666,-10.32409668,2.355894566
7.329527624,1.345541358,-10.07988834,2.319981337
7.33452759,1.41257906,-9.804554939,2.284068346
7.33952759,1.640028119,-9.407117844,2.30801034
7.34452759,1.745373011,-9.162909508,2.281674147
7.349527623,1.788468719,-8.877999306,2.212242365
7.354527656,1.910573006,-8.717587471,2.26730895
7.359527689,2.118868589,-8.49253273,2.387019157
7.364527689,2.221819162,-8.336909294,2.389413357
7.369527689,2.329558372,-8.164526939,2.250549555
7.374527655,2.358288765,-8.166921616,2.068590164
7.379527655,2.30801034,-8.293813705,1.936909199
7.384527655,2.173935175,-8.447042465,1.841141105
7.389527688,1.853112102,-8.667309761,1.778891921
7.394527688,1.623268723,-8.772654533,1.771709204
7.399527688,1.177947283,-8.935460091,1.716642618
7.404528554,0.9481038451,-9.05038166,1.63763392
7.409528554,0.5841852427,-9.172486305,1.393425345
7.414528554,0.356736064,-9.292196274,1.144428372
7.41952852,0.1053448766,-9.447818756,1.010353088
7.42452852,-0.1316810995,-9.5747118,1.084573388
7.42952852,-0.3639186621,-9.675268173,1.268926859
7.434528553,-0.6512228847,-9.675268173,1.383848548
7.439528553,-1.046266198,-9.718363762,1.592144132
7.444528553,-1.201889277,-9.737517357,1.704671621
7.449528519,-1.11569798,-9.608230591,1.97042799
7.454528519,-0.9816226959,-9.481337547,2.104503393
7.459528519,-0.5554547906,-9.189245224,2.406172752
7.464528552,-0.08858546615,-8.868422508,2.578555346
7.469528585,0.2992752194,-8.617031097,2.487575531
7.474528585,0.5626373887,-8.442254066,2.238578558
7.479528585,0.7158663273,-8.233959198,2.094926596
7.484528585,0.8499416113,-7.994538784,2.166752577
7.489528585,1.118092179,-7.805397034,2.434903145
7.494528585,1.247379065,-7.656956196,2.45166254
7.499528551,1.194706678,-7.56358242,2.157175779
7.504528551,1.161187768,-7.616254807,1.975216389
7.509528551,1.204283476,-7.752724171,1.812410712
7.514528584,1.268926859,-7.939472198,1.666364431
7.519528584,1.309628367,-7.965808392,1.623268723
7.524528584,1.517923832,-7.984961987,1.661576033
7.52952855,1.692700624,-8.059182167,2.138022184
7.534528516,1.884236693,-8.075942039,2.643198729
7.539528482,1.980004787,-8.03763485,3.282450438
7.544528482,1.855506301,-8.052000046,3.373430252
7.549528515,1.465251446,-8.128614426,3.189076662
7.554528548,1.316810966,-8.178892136,2.930502892
7.559528581,1.132457376,-8.396764755,2.549824715
7.564528581,1.106121182,-8.487744331,2.470816135
7.569528581,1.00317049,-8.473379135,2.499546528
7.574528547,0.6847416759,-8.561964989,2.37744236
7.579528547,0.1651999205,-8.614637375,2.197877169
7.584528547,-0.05985504389,-8.640973091,2.252943754
7.58952858,-0.4046200812,-8.76068306,2.401384354
7.594528613,-0.5698199868,-8.873210907,2.370259762
7.599528613,-0.8403648138,-9.074323654,2.032677174
7.604528579,-1.156399369,-9.213187218,1.661576033
7.609528545,-1.211466074,-9.239523888,1.37427175
7.614528511,-1.063025594,-9.179668427,1.15161097
7.619528477,-0.7278373241,-8.983344078,1.070208192
7.624528477,-0.4213795066,-8.901941299,1.156399369
7.62952851,0.04788403213,-8.990526199,1.352723956
7.634528543,0.2896983922,-9.117419243,1.460463047
7.639528576,0.691924274,-9.443030357,1.565807939
7.644528576,0.9959878922,-9.646537781,1.647210717
7.649528576,1.345541358,-10.03439903,1.690306425
7.654528542,1.529894829,-10.32170296,1.687912226
7.659528542,1.625662923,-10.58506489,1.644816518
7.664528542,1.695094824,-10.78857231,1.549048543
7.669528575,1.666364431,-10.934618,1.422155857
7.674528575,1.613691926,-10.98968506,1.247379065
7.679528575,1.45088625,-11.03996372,1.039083481
7.684528575,1.352723956,-11.04475212,0.921767652
7.689528575,1.127668977,-11.06151104,0.6943184733
7.694528575,0.9935936928,-11.05432892,0.5746083856
7.699528541,0.8188169599,-11.12376022,0.4644751251
7.704528541,0.6799532771,-11.31290245,0.3256114423
7.709528541,0.4668693244,-11.52838039,0.1005564705
7.714528574,0.2513911724,-11.7893486,-0.215478152
7.719528607,-0.1029506698,-12.09580612,-0.6584054828
7.724528607,-0.2777273953,-12.23945808,-0.9169792533
7.729528573,-0.383072257,-12.37832165,-1.273715258
7.734528539,-0.3854664862,-12.44536018,-1.436521053
7.739528539,-0.3351882398,-12.54112816,-1.606509328
7.744528539,-0.2178723514,-12.64407825,-1.625662923
7.749528572,0.2705447972,-12.7613945,-1.491587639
7.754528572,0.8331822157,-12.93377686,-1.319205165
7.759528572,1.544260144,-13.20911026,-1.031900883
7.764528572,2.243366957,-13.79090118,-0.6967126727
7.769528572,3.488351822,-14.79197693,-0.1556231081
7.774528572,4.268861771,-15.49347782,0.2202665508
7.779528538,5.430348873,-16.57326317,1.144428372
7.784528538,6.107907772,-17.10477638,1.862688899
7.789528538,7.072771072,-17.33701324,3.371036053
7.794528571,7.41274786,-16.97309494,4.508281708
7.799528571,7.482179642,-15.80472374,6.732794285
7.804528571,7.058405876,-14.66717911,8.435071945
7.809528537,6.395212173,-13.76695919,9.682451248
7.814528537,5.684134007,-13.15643787,10.04636955
7.819528537,4.673481941,-12.61055946,9.596260071
7.82452857,4.108449936,-12.36156273,9.189245224
7.82952857,3.414131641,-12.23945808,8.76068306
7.83452857,3.016694069,-12.28015995,8.617031097
7.83952857,2.360682964,-12.37832165,8.157344818
7.84452857,1.917755604,-12.49803257,7.606678009
7.84952857,1.501164436,-12.60337734,6.991368294
7.854528536,1.185129881,-12.64647293,6.258742332
7.859528502,0.8116343617,-12.68717384,5.511751652
7.864528502,0.5506663918,-12.81406689,4.872200489
7.869528502,0.7254431248,-12.67520332,3.873818398
7.874528535,0.6296750307,-12.16523838,2.880224705
7.879528535,0.6177040339,-11.45415974,0.7158663273
7.884528535,0.5339069963,-11.62893677,-0.2801215947
7.889528501,0.6560112834,-13.57781696,-0.5267243981
7.894528467,1.606509328,-15.49347782,0.2920926213
7.899528433,2.837129116,-16.3410244,0.3064578176
7.904528433,3.799597979,-16.57565689,0.06464344263
7.909528466,4.09169054,-16.86535454,-0.1364694983
7.914528499,3.936067581,-16.81747055,-0.5051765442
7.919528532,3.447650433,-15.9579525,-1.027112484
7.924528532,3.110068083,-15.30912399,-1.094150186
7.929528532,2.731784105,-14.38945103,-1.106121182
7.934528498,2.652775526,-13.70949841,-1.223437071
7.939528498,2.717418909,-12.69675064,-1.553836942
7.944528498,2.762908697,-12.00482655,-1.618480325
7.949528531,2.913743496,-11.60499477,-1.18752408
7.954528531,2.901772499,-11.43021774,-0.6392518282
7.959528531,2.894589901,-11.33205605,-0.323217243
7.964528497,3.141192675,-11.19079781,-0.2082955539
7.969528463,3.529053211,-10.9202528,0.4333505034
7.974528429,3.548206806,-10.85321522,0.9552865028
7.979528429,3.426102638,-10.77181244,1.829170108
7.984528429,3.057395458,-10.70477486,2.255337954
7.989528462,2.511517525,-10.58027649,2.616862535
7.994528495,2.540247917,-10.47253704,3.485957623
7.999528528,2.214636564,-10.02242756,4.838681698
8.004528528,2.173935175,-9.680056572,5.605125427
8.009528528,1.55862534,-9.239523888,5.916371822
8.014528494,1.192312479,-8.973767281,5.490203857
