Time (s),Acceleration x (m/s^2),Acceleration y (m/s^2),Acceleration z (m/s^2)
6.001587025,0.6808820667970842,-0.7051360749539036,1.1994927699211806
6.006587025,0.7509604754390912,-0.7645541443525864,0.9257802854534206
6.011587025,0.8175218777205187,-0.8273826667960908,0.64904398438074
6.016586991,0.880007254333782,-0.8936836550941761,0.3707715570038163
6.021586991,0.9378946807731765,-0.9634190304417534,0.09241657357552478
6.026586991,0.990709557558458,-1.036444372193919,-0.18461108364262271
6.031587024,1.0380339008186512,-1.1125047411240807,-0.45895350047141653
6.036587024,1.0795144327816149,-1.1912327548060122,-0.7293116476550389
6.04158709,1.114869247976585,-1.272149045264528,-0.9944508916137573
6.04658709,1.1438928738460497,-1.354665176317722,-1.2532050946492257
6.051586423,1.1664595931025425,-1.4380890424967616,-1.504479343472328
6.056585589,1.182524948817314,-1.5216327143321422,-1.7472513903583853
6.061585189,1.1921254108700314,-1.6044226373531854,-1.9805719340430346
6.066585155,1.195376242269232,-1.6855120358010423,-2.2035639020271827
6.071585155,1.1924676632739202,-1.7638953186454742,-2.415420917575775
6.076585155,1.1836594667578804,-1.8385242370967418,-2.615405141371888
6.081585755,1.1692742862065622,-1.9083255012630764,-2.802844670762661
6.086585755,1.1496897549127914,-1.972219530115766,-2.977130662423782
6.091586755,1.125329819100136,-2.0291399839098836,-3.1377143215469756
6.096586721,1.096655477892918,-2.0780537114848707,-3.2841038764239077
6.101586687,1.0641552196714457,-2.1179807358955376,-3.4158616348149957
6.106587053,1.0283354089677756,-2.148013899871217,-3.5326012002109146
6.111587953,0.9897108530304725,-2.1673377968078573,-3.6339849138379177
6.116587986,0.9487957453482091,-2.1752466224215476,-3.7197215832367925
6.121588019,0.906095147965735,-2.171160595944811,-3.789564560882262
6.126588052,0.8620971388931611,-2.1546406172018906,-3.8433102458032846
6.131588052,0.8172657189776378,-2.125400846872274,-3.880797094890622
6.136588052,0.7720345474233562,-2.0833189221695263,-3.9019052436804382
6.141588018,0.7268015582679217,-2.028443550253974,-3.906556842105346
6.146588018,0.6819245006483623,-1.9609992590018634,-3.8947172018171274
6.151588051,0.6377174403846284,-1.881388131598253,-3.86639682327566
6.156588084,0.5944482549892812,-1.7901884094147817,-3.8216543229182824
6.161588084,0.5523371450517768,-1.6881499166580591,-3.7606002193144588
6.166587817,0.511556170271735,-1.5761863379547496,-3.6834014721401367
6.171587783,0.4722297985520034,-1.455364461972139,-3.5902866091003154
6.176587749,0.4344364333354782,-1.3268905849241508,-3.481551230572978
6.181587715,0.3982108601574856,-1.1920943422260981,-3.3575636526019763
6.186587715,0.36354753033156095,-1.05241030068792,-3.218770435385353
6.191587648,0.3304045793238784,-0.9093576949829713,-3.0657015440534128
6.196587681,0.2987084606026069,-0.7645187294346423,-2.89897489814848
6.201588381,0.26835906302720475,-0.6195158890145649,-2.7193000830509693
6.206589247,0.23923517141461462,-0.47598871197211,-2.5274810188435293
6.211589613,0.21120012597113288,-0.33557047122414785,-2.3244174089616694
6.216589613,0.18410753692043932,-0.19986519336616995,-2.1111048222910305
6.221589579,0.15780691580257358,-0.07042541404458866,-1.8886332981356289
6.226589579,0.13214909421195384,0.051268972217429654,-1.6581844034281537
6.231589012,0.10699131364578308,0.16383045932524157,-1.4210267148925084
6.236589045,0.08220188609069656,0.2659820225393525,-1.1785097441038659
6.241588045,0.057664343499605426,0.3565733672381492,-0.9320563681189362
6.246588045,0.03328101488707635,0.43459520702769433,-0.6831538692343775
6.251588045,0.00897599162401966,0.499191505666309,-0.4333437207386598
6.256588045,-0.01530253655549016,0.5496696718986737,-0.18421027826922162
6.261587145,-0.03958057182594729,0.5855087411624424,0.06263145244209214
6.266587111,-0.06385720421936616,0.6063656108006502,0.30554879966696885
6.271587111,-0.08810407896462547,0.612079414675171,0.5429049959289977
6.276587111,-0.11226539146869181,0.6026741290589233,0.7730731782034803
6.281587144,-0.13625836066970798,0.578359495812005,0.9944506715856763
6.286587144,-0.15997412930302174,0.5395303336367289,1.2054734175991644
6.291587144,-0.18327904012827462,0.48676428692258816,1.4046304127462799
6.29658711,-0.20601623989988985,0.4208180378753104,1.5904780241241814
6.301587076,-0.22800756756638532,0.3426219845811679,1.7616540479386118
6.306587076,-0.24905568968727543,0.2532733680707107,1.9168913750206946
6.311587109,-0.26894645407057666,0.1540278172407975,2.0550311263010768
6.316587409,-0.28745144159863034,0.0462892729570204,2.175035121245898
6.321587409,-0.3043307053129815,-0.06840174736266913,2.2759975433340123
6.326587409,-0.31933569415482804,-0.1883815753713884,2.357155668096621
6.331587409,-0.33221236542880417,-0.31187852209933087,2.417899520413814
6.336587409,-0.342704494298752,-0.4370297032449252,2.4577803284472854
6.341587409,-0.3505571897868879,-0.5618995182943717,2.476517642135917
6.346587375,-0.3555206243727096,-0.6844997046309591,2.4740049854646244
6.351587375,-0.35735397820360676,-0.802810845286033,2.4503139149532265
6.356587375,-0.3558295893384038,-0.9148051633399491,2.405696363329436
6.361587408,-0.35073728895166434,-1.0184703891739428,2.340585158365529
6.366587408,-0.3418888860002534,-1.111834440978499,2.2555926232781034
6.371587408,-0.32912275075270403,-1.1929906163868964,2.1515071873327054
6.376587374,-0.31230843222985516,-1.2601229559824914,2.0292879631855016
6.381587374,-0.29135123239869815,-1.3115314096483572,1.890057280298336
6.386587374,-0.26619665100949674,-1.3456564158434996,1.7350912003538925
6.391587407,-0.23683460982495497,-1.3611024929736526,1.56580807966601
6.396587407,-0.20330336352683295,-1.3566604415949521,1.3837552837674285
6.401587407,-0.1656930060956899,-1.3313277662150655,1.1905941992459765
6.406587407,-0.12414848500326446,-1.2843269454485453,0.9880837259792801
6.411587407,-0.07887204031708706,-1.2151212084260197,0.778062467664054
6.416587407,-0.030124991300247383,-1.1234275126266473,0.5624298686065083
6.421587373,0.021771200860582193,-1.0092264625160117,0.3431265691887574
6.426587339,0.07643465887758294,-0.8727689581772635,0.12211427084681019
6.431587339,0.1334236609373407,-0.7145794170304065,-0.09864458616891474
6.436587372,0.19223810684257522,-0.5354554682077374,-0.31720702245835936
6.441587405,0.2523219181229239,-0.3364640767164784,-0.531669286498707
6.446587405,0.3130664009300807,-0.1189341117952613,-0.7401858856900764
6.451587405,0.3738145885611173,0.11555457041645896,-0.9409875924893686
6.456587371,0.4338665669560316,0.3651854067707493,-1.1323981590310104
6.461587337,0.4924857715322033,0.627922597087393,-1.312849503511183
6.466587303,0.5489062274841165,0.9015315467529461,-1.4808951682121643
6.471587303,0.6023406885360039,1.1836020243800476,-1.6352218912117227
6.476587336,0.6519896114474506,1.4715737421161532,-1.774659180065213
6.481587369,0.6970508856459081,1.7627640368655582,-1.8981868241410722
6.486587402,0.7367302194069929,2.054397307022912,-2.0049403304856677
6.491587402,0.7702520661262007,2.3436358412422016,-2.0942143135512388
6.496587402,0.7968709564926296,2.627611662983873,-2.165463909548101
6.501587368,0.8158830849729917,2.903459006651353,-2.2183043200109593
6.506587368,0.8266379823649531,3.1683470376127936,-2.2525086158520344
6.511587368,0.8285500909359416,3.419512428992789,-2.2680039531446896
6.516587401,0.8211100456370716,3.6542914126367196,-2.2648663661880284
6.521587401,0.8038954549913503,3.8701509299919152,-2.2433143132069464
6.526587401,0.7765809694949009,4.064718520683977,-2.2037011562427096
6.531587367,0.7389474246985025,4.235810602054758,-2.1465067599062513
6.536587333,0.6908898512855214,4.381458811490099,-2.0723283939211194
6.541587299,0.6324241557600545,4.499934104505396,-1.9818711218335214
6.546587299,0.5636922926687118,4.5897683247451875,-1.8759378529085347
6.551587299,0.4849657720576634,4.649772986826235,-1.755419226047233
6.556587332,0.3966473733064212,4.67905503900679,-1.621283483542176
6.561587365,0.2992709676772765,4.67702939990021,-1.4745664786564567
6.566587398,0.19349938599134317,4.643428091965591,-1.3163619444321188
6.571587398,0.08012030394299749,4.578305824517834,-1.1478121319689074
6.576587398,-0.03995984518236617,4.482041910738271,-0.9700989049726231
6.581587364,-0.165723883200304,4.3553384368044075,-0.7844353541436155
6.586587364,-0.29605374145754093,4.199214636870402,-0.5920579706465984
6.591587364,-0.4297420389439982,4.014997465227679,-0.394219393366977
6.596587397,-0.5655052348262845,3.8043083965527664,-0.19218172099844152
6.601587397,-0.7019981789669825,3.5690465267312685,0.012789641608577791
6.606587397,-0.8378298613443228,3.3113680903831524,0.2194316519135424
6.611587397,-0.971580143240207,3.033662556931318,0.42648887670805596
6.616587397,-1.1018172392589254,2.7385255147784484,0.6327183920092505
6.621587397,-1.2271157089513125,2.428728602639601,0.8368944168232898
6.626587363,-1.3460747091950809,2.1071867978503147,1.0378127649861115
6.631587363,-1.4573362528650637,1.7769234228259012,1.234295199361076
6.636587363,-1.55960321552128,1.4410332818646325,1.425193769681486
6.641587396,-1.651656830170643,1.1026443900607898,1.6093952090585717
6.646587396,-1.732373411328237,0.764878802954457,1.7858254542359535
6.651587396,-1.8007400544542833,0.43081309822381963,1.9534543406081661
6.656587362,-1.8558690659606054,0.10343909743496801,2.1113005045341766
6.661587362,-1.8970108923506668,-0.21437455557951646,2.25843650274279
6.666587362,-1.9235653341192294,-0.5199193251419161,2.393994132545881
6.671587395,-1.9350908502246993,-0.810681583139732,2.517169908707469
6.676587428,-1.9313117821678853,-1.0843746468068154,2.6272306250627784
6.681587428,-1.9121233532774424,-1.3389674490063648,2.7235189032650546
6.686587428,-1.877594329004044,-1.572709276183954,2.805458609083619
6.691587428,-1.8279672578400645,-1.784150066895553,2.872559999845979
6.696587428,-1.7636562495625734,-1.9721558382523716,2.9244244558278187
6.701587428,-1.6852422872586879,-2.1359188981325965,2.960748644187351
6.706587394,-1.593466111272287,-2.27496260607636,2.981327966739792
6.711587394,-1.4892187559377672,-2.3891405628196813,2.9860591526920097
6.716587394,-1.373529862844506,-2.4786302337534583,2.974941874469522
6.721587427,-1.247553936551694,-2.5439211406162063,2.9480792887102854
6.726587427,-1.1125547493319394,-2.5857978833109843,2.905677434639333
6.731587427,-0.9698881398134895,-2.605318374754578,2.8480434571020603
6.736587393,-0.8209834853281475,-2.603787781591343,2.775582659719232
6.741587393,-0.6673241581601906,-2.5827287589049783,2.688794432669477
6.746587393,-0.5104273003749635,-2.5438486452868023,2.5882671369879735
6.751587426,-0.3518232691728905,-2.4890043441973684,2.4746720606359296
6.756587426,-0.1930351137607245,-2.420165657492652,2.348756589198288
6.761587426,-0.03555844500411061,-2.339377856622462,2.2113367549693335
6.766587426,0.11915794951104708,-2.248724276006374,2.0632893421100267
6.771587426,0.26973040975330376,-2.1502896915954266,1.9055437325810765
6.776587426,0.4148573172688907,-2.0461252065053506,1.7390736778685423
6.781587392,0.5533343425530913,-1.938215306592008,1.5648891753630436
6.786587392,0.6840677888832911,-1.8284476744880278,1.3840286158787565
6.791587392,0.8060858399761278,-1.7185862641311964,1.1975513503781072
6.796587425,0.9185475659783153,-1.6102480427754522,1.0065307994884496
6.801587458,1.0207495904942345,-1.5048837075436046,0.8120481986476669
6.806587458,1.1121303689817732,-1.4037625821664008,0.6151870345430897
6.811587424,1.1922720747989577,-1.3079617995444521,0.41702818542104464
6.81658739,1.260900133006791,-1.2183597793933094,0.21864573082071184
6.821587356,1.317880483826034,-1.1356339191093061,0.021103349319108507
6.826587322,1.36321469764699,-1.0602623314226707,-0.1745488182913699
6.831587322,1.397033101636696,-0.9925293857157851,-0.36727699214717413
6.836587355,1.419586113695043,-0.9325347426229638,-0.5560664270515081
6.841587388,1.4312340117166196,-0.8802055153063943,-0.7399240954564993
6.846587421,1.4324353934000713,-0.8353111469195637,-0.9178815167097325
6.851587421,1.4237346025892677,-0.797480562839864,-1.0889978366512763
6.856587421,1.4057484107507472,-0.7662211380606306,-1.2523632229368078
6.861587387,1.3791522455232401,-0.7409390137329609,-1.4071026019009474
6.866587387,1.34466625192517,-0.7209603007803359,-1.5523797261219714
6.871587387,1.3030414563140569,-0.7055527210254088,-1.6874015308040469
6.87658742,1.2550462799569548,-0.693947255536132,-1.811422713593155
6.88158742,1.2014536202211978,-0.685359394202358,-1.923750457790769
6.88658742,1.143028685685995,-0.6790096084680305,-2.0237492136244932
6.891587386,1.0805177400665045,-0.6741426996236225,-2.110845455596894
6.896587352,1.014637881728403,-0.670045707435632,-2.1845323437643294
6.901587318,0.9460679627352383,-0.6660640978375773,-2.2443742293924474
6.906587318,0.8754407340746099,-0.6616159840695243,-2.29001095627283
6.911587351,0.8033362904354506,-0.6562041737323905,-2.321161914195238
6.916587384,0.7302768760846821,-0.6494258757939141,-2.33762979908871
6.921587417,0.6567231005027415,-0.6409799475184127,-2.339304026654389
6.92658745,0.583071596900443,-0.6306716115962728,-2.326163736666258
6.93158745,0.5096541381036106,-0.6184146272168476,-2.2982803177845263
6.936587416,0.4367382028675575,-0.6042309532418144,-2.2558193808634934
6.941587382,0.3645289620740719,-0.5882479943476712,-2.1990421136013074
6.946587382,0.29317262912159564,-0.5706935695510175,-2.1283059604580843
6.951587382,0.22276109278554881,-0.5518887849784452,-2.04406458731458
6.956587415,0.15333772452709438,-0.5322390277692245,-1.9468671079036197
6.961587415,0.08490422633445835,-0.5122233248382716,-1.837356565918868
6.966587415,0.017428360517541326,-0.4923823286680073,-1.7162676804789494
6.971587415,-0.04914761950937815,-0.47330520272744453,-1.5844238717495955
6.976587415,-0.11489803734833619,-0.45561568248595297,-1.442733587650125
6.981587415,-0.1799045748812666,-0.4399575855858024,-1.292185952466823
6.986587381,-0.24424698982092147,-0.42698003783331484,-1.1338457553526224
6.991587381,-0.30799399562549457,-0.41732267125946904,-0.9688477927658388
6.996587381,-0.37119452658805835,-0.4116010372910396,-0.7983905752359145
7.001587414,-0.433869601480097,-0.4103924626198598,-0.6237294062053068
7.006587414,-0.49600498380934227,-0.4142225581970162,-0.44616883930087226
7.011587414,-0.5575448160863696,-0.4235525734478497,-0.26705452022900256
7.01658738,-0.6183863802564056,-0.4387677687961473,-0.08776442071271204
7.02158738,-0.6783761075795366,-0.4601669603134321,0.0903005250843935
7.02658738,-0.7373069297620995,-0.48795337109423564,0.2657263658568
7.031587413,-0.7949170301333863,-0.5222269050337619,0.43709663633819906
7.036587413,-0.8508900202344661,-0.5629779401744869,0.6030033835921136
7.041587413,-0.9048565344494046,-0.6100827206815362,0.7620586678177763
7.046587413,-0.9563972043189689,-0.6633004086517541,0.912906472509376
7.051587413,-1.005046945865688,-0.7222718390897861,1.054234939788442
7.056587079,-1.0503004683672181,-0.7865200031592772,1.1847888257305965
7.061586379,-1.0916188920408534,-0.8554522659194403,1.3033820482531586
7.066586345,-1.1284373452894618,-0.9283643049996629,1.4089101777405255
7.071586345,-1.1601733995067227,-1.0044457360794525,1.5003626996608015
7.076586345,-1.1862361907015817,-1.0827873698916257,1.5768348609017542
7.081586378,-1.206036071889095,-1.162390024186557,1.6375388993011395
7.086585711,-1.2189946376331746,-1.2421747931847364,1.6818144502328467
7.091585711,-1.2245549615955518,-1.3209946569701687,1.7091379256848438
7.096585677,-1.2221918888357712,-1.3976472944097995,1.7191306697076256
7.101585643,-1.211422226523297,-1.4708889457998937,1.7115657084952745
7.106585609,-1.1918146795057927,-1.5394491557683212,1.686372932612941
7.111585609,-1.1629993808795045,-1.6020462132474944,1.6436425721622827
7.116585642,-1.1246768725478324,-1.6574030938751927,1.583626852418386
7.121585875,-1.0766263970706684,-1.7042637013221134,1.5067397471810697
7.126585908,-1.018713370294018,-1.7414091981134086,1.4135547791275438
7.131585908,-0.9508959146660197,-1.7676742137374248,1.3048008500588857
7.136585908,-0.8732303460106575,-1.7819627182935047,1.1813561182913868
7.141585874,-0.7858755218336305,-1.783263353543146,1.044239974775774
7.146585874,-0.6890959766729938,-1.770664019806884,0.8946032031117587
7.151585874,-0.5832637889717376,-1.7433655264364722,0.7337164408684482
7.156585907,-0.46885914361069425,-1.7006941252912555,0.5629570901051503
7.161585907,-0.3464695737145419,-1.642112760467092,0.3837948534016572
7.166585907,-0.2167878838502134,-1.5672308832409934,0.1977760977066023
7.171585873,-0.08060877368589978,-1.4758126986754947,0.00650727143371995
7.176585839,0.061175803785849525,-1.3677837295017015,-0.18836238007222167
7.181585805,0.20758250233991274,-1.2432356036763736,-0.3851585398704269
7.186585805,0.35754360268419866,-1.1024289942097902,-0.5821997134988325
7.191585805,0.5099151249817203,-0.9457946632140825,-0.7778150133765713
7.196585838,0.6634859579251591,-0.7739325862880924,-0.9703615539987471
7.201585871,0.8169879217196369,-0.5876091579714908,-1.1582411828460468
7.206586237,0.9691066767262938,-0.3877525036947226,-1.3399162823800153
7.211586903,1.1184933851866374,-0.1754459480259771,-1.5139243953626655
7.216586903,1.2637770303046234,0.04808028736783872,-1.678891449335633
7.221586869,1.403577294717715,0.281459060254415,-1.8335433864007997
7.226586869,1.5365178985895827,0.5231978424231912,-1.9767160409325677
7.231586869,1.6612402957517722,0.7716916773858024,-2.1073631494276506
7.236587569,1.7764176241682645,1.0252374102074289,-2.224562421794915
7.241587569,1.8807688042702504,1.2820490250901846,-2.327519650134048
7.246587569,1.9730726752337395,1.5402739156673813,-2.415570877447634
7.251587569,2.0521820548692893,1.7980099050634473,-2.4881826928396773
7.256587569,2.1170376032664997,2.0533228276148123,-2.544950759907094
7.261587569,2.1666813635293645,2.3042644817033886,-2.5855967199926364
7.266587535,2.200269844845719,2.5488907634069404,-2.6099636410137492
7.271587335,2.2170865040095475,2.7852797936213247,-2.6180102055115158
7.276587335,2.2165534719051254,3.0115498569523895,-2.6098038486160777
7.281587368,2.1982423621594296,3.2258769789364377,-2.5855130682703487
7.286587368,2.161883991144159,3.4265119788351943,-2.5453991367452637
7.291587368,2.1073768328281033,3.611796848027776,-2.489807444497655
7.296587334,2.0347940297060543,3.780180318393111,-2.4191587048671694
7.3015873,1.944388783110917,3.930232500387649,-2.333940240996903
7.306587266,1.8365979533969685,4.060658486001403,-2.2346975647303595
7.311587266,1.7120437132439341,4.170310826600114,-2.122026441194129
7.316587266,1.5715331158506975,4.258200809032997,-1.9965656124897468
7.321587299,1.4160554639241338,4.323508464570562,-1.8589903295914365
7.326587332,1.2467773946666012,4.365591253618147,-1.7100068134316222
7.331587365,1.0650356296699166,4.383991374301327,-1.5503477346204986
7.336587365,0.8723273757255883,4.378441644780213,-1.380768766822901
7.341587365,0.6702984018819623,4.348869907679027,-1.202046232197607
7.346587331,0.4607288583677393,4.2954019008152144,-1.0149758193124983
7.351587331,0.2455169430060802,4.218362532328082,-0.8203723155374809
7.356587331,0.026660559254401136,4.118275491521642,-0.6190702581856377
7.361587364,-0.1937628540969162,3.9958611206904364,-0.4119253728306862
7.366587364,-0.4136181091830048,3.8520324694524883,-0.19981663451556445
7.371587364,-0.6307354306877447,3.687889453186145,0.016351240806784486
7.37658733,-0.8429347282666843,3.5047110423918753,0.235645090152949
7.381587296,-1.0480506950470938,3.3039454212486707,0.4571006146627192
7.386587262,-1.2439584304473688,3.0871980720616405,0.6797199490726771
7.391587262,-1.4285992710729551,2.856217768070505,0.9024697317441257
7.396587295,-1.6000065013396914,2.6128804901228437,1.1242799103953807
7.401587328,-1.7563306059934458,2.359171322447167,1.3440435032200666
7.406587361,-1.8958637203493858,2.097164428180108,1.5606175114414471
7.411587361,-2.0170629315025406,1.8290012550399346,1.772825148155089
