Time (s),Acceleration x (m/s^2),Acceleration y (m/s^2),Acceleration z (m/s^2)
3.00116965,-0.1100698411,1.170090318,8.949156761
3.005924806,-0.1411765367,1.191625714,8.863015175
3.010679962,-0.1746760458,1.201196909,8.757730484
3.015435118,-0.2440679073,1.239482164,8.66680336
3.020190275,-0.2632105052,1.277767301,8.650053978
3.024945431,-0.3254238665,1.253839016,8.757730484
3.029700587,-0.4163511395,1.32801652,8.860622406
3.034455743,-0.4450650215,1.371087432,9.020941734
3.0392109,-0.4761717021,1.373480201,9.245866776
3.043966056,-0.4977070987,1.426122308,9.501898766
3.048721212,-0.5096712112,1.497906923,9.767501831
3.053476316,-0.5144568682,1.562513232,10.02831936
3.058231473,-0.5024927258,1.617548108,10.25324535
3.062986629,-0.4977070987,1.674975872,10.49252701
3.067741785,-0.4498506486,1.706082582,10.73420238
3.072496941,-0.3732803464,1.727617979,10.95673466
3.077252098,-0.2919243574,1.753939033,11.11944675
3.082007254,-0.2177468538,1.753939033,11.2438736
3.08676241,-0.1316052526,1.765903115,11.29651546
3.091517566,-0.05264209956,1.780260086,11.28694439
3.09627267,-0.02153540403,1.794616938,11.2008028
3.101027827,0.01196411345,1.787438512,11.05005455
3.105782983,0.02632104978,1.761117458,10.84187984
3.110538139,-0.009571290575,1.727617979,10.56431198
3.115293295,-0.06221338734,1.694118381,10.23649502
3.120048452,-0.1746760458,1.627119422,9.901499748
3.124803608,-0.2775674164,1.631905079,9.568898201
3.129558764,-0.3541377485,1.648654819,9.260223389
3.134313868,-0.404387027,1.641476393,8.946763992
3.139069025,-0.5096712112,1.627119422,8.657232285
3.143824181,-0.5958128572,1.581655741,8.396414757
3.148579337,-0.6819544435,1.648654819,8.126026154
3.153334493,-0.7944171429,1.631905079,7.89870739
3.15808965,-0.8327022791,1.660618901,7.767102242
3.162844806,-0.9164510965,1.617548108,7.726424217
3.167599962,-0.9786644578,1.631905079,7.690532207
3.172355118,-1.002592683,1.648654819,7.664210796
3.177110223,-1.05523479,1.720439434,7.680960655
3.181865379,-1.189232826,1.797009826,7.786244869
3.186620535,-1.249053478,1.873580098,7.917850018
3.191375691,-1.299302697,1.931007862,8.063812256
3.196130848,-1.289731383,1.986042738,8.276773453
3.200886004,-1.289731383,1.990828395,8.568697929
3.20564116,-1.296909928,2.009970903,8.889336586
3.210396316,-1.268195987,2.057827473,9.267401695
3.21515142,-1.220339537,2.057827473,9.674181938
3.219906577,-1.146162033,2.055434704,10.04985523
3.224661733,-0.9906286001,2.06261301,10.37527943
3.229416889,-0.8255237937,2.122433662,10.67438221
3.234172045,-0.6580262184,2.184647083,10.97348499
3.238927202,-0.5288137794,2.175075769,11.1936245
3.243682358,-0.4067798555,2.158325911,11.42333508
3.248437514,-0.2967100143,2.146361828,11.63868904
3.253192618,-0.1722832322,2.098505497,11.78465176
3.257947775,-0.05742774159,2.048256159,11.85643578
3.262702931,0.0382851623,1.964507341,11.81336498
3.267458087,0.0933200866,1.914258122,11.73918819
3.272213243,0.1459621787,1.861616015,11.58126163
3.2769684,0.2153540403,1.792224169,11.35633659
3.281723504,0.2703889608,1.720439434,11.09791183
3.28647866,0.2679961324,1.672582984,10.80120182
3.291233816,0.2464607358,1.596012712,10.48774147
3.295988973,0.1842473447,1.543370605,10.14556789
3.300744129,0.1268195957,1.533799291,9.841679573
3.305499285,0.07178468257,1.521835208,9.525827408
3.310254441,-0.01196411345,1.497906923,9.274580956
3.315009545,-0.09571290761,1.478764415,9.037691116
3.319764702,-0.1603191197,1.478764415,8.884550095
3.324519858,-0.2679961324,1.464407444,8.800801277
3.329275014,-0.3708875179,1.459621787,8.772088051
3.33403017,-0.4642075896,1.43808639,8.776873589
3.338785327,-0.5527420044,1.450050473,8.788837433
3.343540431,-0.6029912829,1.440479279,8.817551613
3.348295587,-0.6388836503,1.478764415,8.889336586
3.353050743,-0.6891329288,1.512263894,9.013762474
3.3578059,-0.8207381964,1.572084427,9.188439369
3.362561056,-0.7465606928,1.672582984,9.131011009
3.367316212,-0.679561615,1.722832322,9.439684868
3.372071368,-0.6843472719,1.746760488,9.623932838
3.376826473,-0.6005984545,1.820937991,9.865608215
3.381581629,-0.5718846321,1.895115495,10.14078236
3.386336785,-0.5335994363,2.002792597,10.34656525
3.391091941,-0.4761717021,2.079362869,10.62173939
3.395847098,-0.4498506486,2.148754835,10.84905815
3.400602254,-0.3972085714,2.194218397,11.05244732
3.405357358,-0.3469592929,2.213361025,11.18883896
3.410112514,-0.2584248483,2.266003132,11.24148083
3.41486767,-0.1674975902,2.299502611,11.25583744
3.419622827,-0.06221338734,2.328216314,11.18166065
3.424377983,-0.01196411345,2.330609322,11.04526901
3.429133139,0.07417750359,2.337787628,10.89212894
3.433888243,0.1052841991,2.376072884,10.67438221
3.4386434,0.1459621787,2.376072884,10.44706345
3.443398556,0.1722832322,2.385644197,10.19342422
3.448153712,0.2321037948,2.361716032,9.927821159
3.452908868,0.2703889608,2.299502611,9.6693964
3.457664025,0.3038884699,2.258824587,9.382257462
3.462419129,0.2847459018,2.23728919,9.09990406
3.467174285,0.2536391914,2.182254314,8.860622406
3.471929441,0.2153540403,2.129612207,8.618947029
3.476684598,0.1603191197,2.038684845,8.434700012
3.481439754,0.09092725813,1.995614052,8.295916557
3.48619491,0.0,1.940579176,8.200202942
3.490950014,-0.08374879509,1.895115495,8.10449028
3.49570517,-0.1674975902,1.844866276,8.063812256
3.500460327,-0.2560320199,1.789831281,8.049455643
3.505215483,-0.3302095234,1.739582062,8.10449028
3.509970639,-0.418743968,1.727617979,8.193024635
3.514725743,-0.5072783828,1.703689694,8.346165657
3.5194809,-0.5982056856,1.677368641,8.595019341
3.524236056,-0.6891329288,1.653440475,8.841479301
3.528991212,-0.7800601721,1.636690736,9.054440498
3.533746368,-0.8327022791,1.615155339,9.310472488
3.538501525,-0.8805587292,1.591227055,9.602396965
3.543256629,-0.9044869542,1.572084427,9.879964828
3.548011785,-0.9236295223,1.576870084,10.12403297
3.552766941,-0.9212366939,1.560120344,10.36331463
3.557522098,-0.8997012973,1.576870084,10.5355978
3.562277254,-0.9140582681,1.576870084,10.68156052
3.567032358,-0.8829515576,1.581655741,10.78923702
3.571787514,-0.8925228715,1.574477315,10.84905815
3.57654267,-0.8853443861,1.579262972,10.84187984
3.581297827,-0.8398807645,1.564906001,10.80120182
3.586052983,-0.8015955687,1.569691658,10.70309544
3.590808139,-0.7537391186,1.564906001,10.55952644
3.595563243,-0.7058826685,1.540977836,10.38006496
3.6003184,-0.6484549642,1.548156261,10.22453117
3.605073556,-0.5862415433,1.560120344,10.08096218
3.609828712,-0.5072783828,1.540977836,9.95414257
3.614583868,-0.4618147612,1.605584025,9.834501266
3.619338973,-0.409172684,1.634297848,9.750752449
3.624094129,-0.3780659735,1.670190215,9.652647018
3.628849285,-0.3254238665,1.694118381,9.600004196
3.633604441,-0.2967100143,1.741974831,9.540184021
3.638359598,-0.2560320199,1.777867198,9.528220177
3.643114702,-0.2057827413,1.825723648,9.535398483
3.647869858,-0.1674975902,1.859223247,9.611968994
3.652625014,-0.1794617027,1.928615093,9.726823807
3.65738017,-0.1722832322,1.964507341,9.822537422
3.662135327,-0.1555334777,1.971685886,9.95414257
3.666890431,-0.1483550072,2.01475668,10.07139015
3.671645587,-0.1627119333,2.043470621,10.17188931
3.676400743,-0.1627119333,2.036292076,10.26999474
3.6811559,-0.1746760458,2.036292076,10.34417248
3.685911004,-0.1842473447,2.038684845,10.3848505
3.69066616,-0.1938186288,2.036292076,10.39681435
3.695421316,-0.2273181528,1.990828395,10.38724327
3.700176473,-0.2057827413,1.995614052,10.36331463
3.704931629,-0.2153540403,1.971685886,10.29870892
3.709686785,-0.2225325108,1.947757602,10.22453117
3.714441889,-0.2201396823,1.923829436,10.13838959
3.719197045,-0.2847459018,1.897508383,10.0331049
3.723952202,-0.3158525825,1.837687731,9.927821159
3.728707358,-0.3708875179,1.804188251,9.791430473
3.733462462,-0.4546363056,1.756331801,9.695717812
3.738217618,-0.5479564071,1.706082582,9.614361763
3.742972775,-0.6364908218,1.64626193,9.597611427
3.747727931,-0.7178468108,1.593619823,9.561718941
3.752483087,-0.756131947,1.51944232,9.552147865
3.757238191,-0.8255237937,1.45483613,9.540184021
3.761993348,-0.8566305041,1.383051515,9.547362328
3.766748504,-0.9068797827,1.351944804,9.521040916
3.77150366,-0.8805587292,1.31126678,9.487542152
3.776258816,-0.8470591903,1.270588875,9.44207859
3.78101392,-0.8207381964,1.280160069,9.394221306
3.785769077,-0.7896314859,1.277767301,9.382257462
3.790524233,-0.7633104324,1.289731383,9.38465023
3.795279389,-0.708275497,1.292124271,9.403793335
3.800034493,-0.6388836503,1.306481123,9.410971642
3.80478965,-0.5551348329,1.349551916,9.427721024
3.809544806,-0.4450650215,1.351944804,9.454042435
3.814299962,-0.3852444589,1.351944804,9.461220741
3.819055118,-0.3086741269,1.34237349,9.466006279
3.823810223,-0.2632105052,1.347159147,9.51386261
3.828565379,-0.1914258152,1.332802176,9.540184021
3.833320535,-0.1459621787,1.363908887,9.57129097
3.838075691,-0.0933200866,1.354337573,9.631111145
3.842830795,-0.06221338734,1.368694544,9.659825325
3.847585952,0.007178467698,1.37587297,9.681360245
3.852341108,0.02632104978,1.409372568,9.712467194
3.857096264,0.08853443712,1.418943882,9.738788605
3.86185142,0.1507478207,1.440479279,9.726823807
3.866606525,0.1483550072,1.483550072,9.726823807
3.871361681,0.1459621787,1.450050473,9.688538551
3.876116837,0.1459621787,1.469193101,9.671789169
3.880871993,0.1387837082,1.466800332,9.614361763
3.885627098,0.0933200866,1.488335729,9.580862045
3.890382254,0.07178468257,1.505085468,9.568898201
3.89513741,0.1603191197,1.452443361,9.738788605
3.899892566,0.03589234129,1.529013634,9.616754532
3.904647723,-0.05264209956,1.529013634,9.585647583
3.909402827,-0.1052841991,1.512263894,9.602396965
3.914157983,-0.1339980662,1.495514154,9.638289452
3.918913139,-0.1244267747,1.517049551,9.657432556
3.923668295,-0.1674975902,1.521835208,9.712467194
3.9284234,-0.2129612118,1.564906001,9.791430473
3.933178556,-0.2177468538,1.574477315,9.872786522
3.937933712,-0.1938186288,1.615155339,10.01635551
3.942688868,-0.2129612118,1.641476393,10.17906761
3.947444025,-0.2321037948,1.617548108,10.30588722
3.952199129,-0.2368894368,1.584048629,10.44467068
3.956954285,-0.2440679073,1.588834286,10.57388306
3.961709441,-0.2512463629,1.557727575,10.67677498
3.966464545,-0.2727817893,1.531406522,10.72941685
3.971219702,-0.2608176768,1.50269258,10.73420238
3.975974858,-0.2799602449,1.500299811,10.74377346
3.980730014,-0.2967100143,1.493121386,10.68156052
3.98548517,-0.2751746178,1.478764415,10.55474091
3.990240275,-0.2536391914,1.476371527,10.37049294
3.994995431,-0.2560320199,1.430907965,10.16231823
3.999750587,-0.2799602449,1.411765337,9.865608215
4.004505743,-0.3302095234,1.34237349,9.537791252
4.009260848,-0.2991028428,1.26341033,9.36550808
4.014016004,-0.4450650215,1.239482164,9.131011009
4.01877116,-0.4977070987,1.239482164,8.839086533
4.023526316,-0.6053841114,1.261017561,8.638090134
4.02828142,-0.6628118753,1.253839016,8.511270523
4.033036577,-0.6604190469,1.225125194,8.377271652
4.037791733,-0.6317051649,1.191625714,8.312665939
4.042546889,-0.5216353536,1.165304661,8.295916557
4.047301993,-0.5144568682,1.127019525,8.353343964
4.05205715,-0.4833501875,1.153340459,8.470592499
4.056812306,-0.4809573591,1.165304661,8.654839516
4.061567462,-0.4522434771,1.186840057,8.891729355
4.066322618,-0.4402793646,1.237089276,9.145368576
4.071077723,-0.4235295951,1.270588875,9.406186104
4.075832879,-0.3852444589,1.265803218,9.674181938
4.080588035,-0.3038884699,1.280160069,9.968499184
4.085343191,-0.1651047617,1.308874011,10.18863869
4.090098295,-0.1028913707,1.332802176,10.46620655
4.094853452,-0.03589234129,1.363908887,10.71506023
4.099608608,0.0239282269,1.399801254,10.93759251
4.104363712,0.0765703246,1.43808639,11.10509014
4.109118868,0.1459621787,1.435693622,11.21755219
4.113874025,0.1986042857,1.411765337,11.29651546
4.118629181,0.2584248483,1.385444283,11.35394382
4.123384337,0.3038884699,1.325623751,11.33719349
4.128139441,0.337387979,1.308874011,11.23669529
4.132894598,0.380458802,1.296909928,11.04526901
4.137649754,0.4139583111,1.304088354,10.82273674
4.14240491,0.4307080805,1.299302697,10.54038334
4.147160014,0.4642075896,1.296909928,10.26760197
4.15191517,0.4809573591,1.301695466,10.03789139
4.156670327,0.4689932466,1.268195987,9.841679573
4.161425431,0.4307080805,1.289731383,9.674181938
4.166180587,0.3708875179,1.275374413,9.540184021
4.170935743,0.3302095234,1.277767301,9.454042435
4.1756909,0.2584248483,1.256231904,9.372686386
4.180446004,0.2225325108,1.227517962,9.327222824
4.18520116,0.2416750938,1.241874933,9.2865448
4.189956316,0.2368894368,1.208375454,9.243474007
4.194711473,0.2656033039,1.205982566,9.205188751
4.199466577,0.2584248483,1.194018483,9.226723671
4.204221733,0.2775674164,1.174875975,9.238688469
4.208976889,0.2919243574,1.16769743,9.262616158
4.213732045,0.2943171859,1.165304661,9.303294182
4.21848715,0.3110669553,1.131805062,9.351150513
4.223242306,0.3326023519,1.129412293,9.391828537
4.227997462,0.3589234054,1.143769264,9.427721024
4.232752618,0.3828516304,1.162911773,9.477970123
4.237507723,0.3996013701,1.155733347,9.523433685
4.242262879,0.3996013701,1.208375454,9.521040916
4.247018035,0.418743968,1.217946768,9.580862045
4.251773191,0.3780659735,1.160519004,9.667003632
4.256528295,0.4259224236,1.15094769,9.731609344
4.261283452,0.4761717021,1.160519004,9.824930191
4.266038608,0.4354937077,1.1820544,9.896714211
4.270793712,0.3684946895,1.220339537,9.927821159
4.275548868,0.3254238665,1.222732425,9.966106415
4.280304025,0.2727817893,1.256231904,9.990034103
4.285059181,0.2201396823,1.244267821,9.997213364
4.289814285,0.1651047617,1.244267821,10.00439167
4.294569441,0.1196411327,1.232303619,9.973284721
4.299324598,0.04067798331,1.196411371,9.94696331
4.304079754,-0.02153540403,1.191625714,9.918250084
4.308834858,-0.0933200866,1.191625714,9.870393753
4.313590014,-0.1483550072,1.15094769,9.822537422
4.31834517,-0.1962114573,1.158126116,9.79860878
4.323100275,-0.2057827413,1.170090318,9.74835968
4.327855431,-0.2297109663,1.160519004,9.722038269
4.332610587,-0.2344966233,1.158126116,9.705288887
4.337365743,-0.2560320199,1.165304661,9.700503349
4.342120848,-0.2321037948,1.143769264,9.702896118
4.346876004,-0.2464607358,1.153340459,9.676574707
4.35163116,-0.2368894368,1.170090318,9.700503349
4.356386316,-0.1962114573,1.194018483,9.710074425
4.36114142,-0.1842473447,1.225125194,9.683753014
4.365896577,-0.1220339537,1.244267821,9.662218094
4.370651733,-0.07896314561,1.29451704,9.626325607
4.375406837,-0.0382851623,1.330409408,9.645467758
4.380161993,0.0239282269,1.361516118,9.652647018
4.38491715,0.08614161611,1.385444283,9.688538551
4.389672306,0.1531406492,1.399801254,9.74835968
4.39442741,0.2105683982,1.421336651,9.832108498
4.399182566,0.2608176768,1.414158225,9.896714211
4.403937723,0.3230310678,1.428515077,10.00439167
4.408692827,0.3924229145,1.404586911,10.04746246
4.413447983,0.4785645306,1.402194023,10.11446095
4.418203139,0.5527420044,1.399801254,10.19581699
4.422958295,0.6173482537,1.404586911,10.25324535
4.4277134,0.650847733,1.402194023,10.28674412
4.432468556,0.679561615,1.383051515,10.3346014
4.437223712,0.708275497,1.385444283,10.37527943
4.441978868,0.7441678643,1.35912323,10.40399265
4.446733973,0.7441678643,1.323230863,10.45184898
4.451489129,0.7800601721,1.272981644,10.47817039
4.456244285,0.813559711,1.26341033,10.47338486
4.460999389,0.8877372146,1.323230863,10.55713367
4.465754545,0.8949156404,1.32801652,10.56431198
4.470509702,0.8781659007,1.265803218,10.44945621
4.475264858,0.8781659007,1.155733347,10.26999474
4.480019962,0.8638089895,1.091127157,10.09292603
4.484775118,0.8709874153,1.045663476,9.966106415
4.489530275,0.8781659007,1.050449133,9.812965393
4.494285379,0.8518448472,1.009771109,9.686145782
4.499040535,0.8279166222,0.9547362328,9.597611427
4.503795691,0.7896314859,0.94277215,9.561718941
4.508550795,0.813559711,0.9188438654,9.535398483
4.513305952,0.7872386575,0.9140582681,9.473184586
4.518061108,0.7369893789,0.8949156404,9.415757179
4.522816264,0.7226324677,0.8877372146,9.389435768
4.527571368,0.6628118753,0.8853443861,9.377471924
4.532326525,0.6293123364,0.890130043,9.401400566
4.537081681,0.5862415433,0.8614161611,9.408578873
4.541836785,0.6149554253,0.9451649189,9.430113792
4.546591941,0.6460621357,0.9714859724,9.499505997
4.551347098,0.5479564071,0.8853443861,9.604789734
4.556102254,0.5814558864,0.8494520187,9.688538551
4.560857358,0.6771687865,0.8733802438,9.858428955
4.565612514,0.6580262184,0.9379864931,10.00917721
4.57036767,0.5766702294,0.9571290612,10.11446095
4.575122775,0.5455635786,0.9786644578,10.21256733
4.579877931,0.5551348329,0.9786644578,10.33699417
4.584633087,0.5814558864,1.03848505,10.44227791
4.589388191,0.6029912829,1.050449133,10.54277611
4.594143348,0.6388836503,1.014556766,10.56670475
4.598898504,0.6460621357,0.9978070259,10.55234814
4.603653608,0.626919508,0.9858429432,10.49731255
4.608408764,0.6053841114,0.9978070259,10.43031406
4.61316392,0.5814558864,1.012163997,10.3154583
4.617919077,0.5503492355,0.9882357717,10.18385315
4.622674181,0.5120640397,1.000199914,10.02831936
4.627429337,0.4689932466,0.9499505758,9.887143135
4.632184493,0.4115654826,0.9475577474,9.774680138
4.636939598,0.380458802,0.9571290612,9.643074989
4.641694754,0.3613162339,0.9332008362,9.528220177
4.64644991,0.3326023519,0.9116654396,9.403793335
4.651205014,0.3206382394,0.9188438654,9.317651749
4.65596017,0.2943171859,0.9044869542,9.224330902
4.660715327,0.2679961324,0.9188438654,9.162117958
4.665470483,0.2368894368,0.9379864931,9.147761345
4.670225587,0.2249253243,0.9475577474,9.164510727
4.674980743,0.1818545163,0.9499505758,9.1860466
4.6797359,0.1459621787,0.9667003751,9.267401695
4.684491004,0.1244267747,0.9451649189,9.377471924
4.68924616,0.1196411327,0.9714859724,9.499505997
4.694001316,0.1268195957,0.9954141974,9.578469276
4.69875642,0.1531406492,1.019342422,9.671789169
4.703511577,0.1698904037,1.019342422,9.710074425
4.708266733,0.2201396823,1.052842021,9.7698946
4.713021837,0.2368894368,1.076770186,9.791430473
4.717776993,0.2464607358,1.074377418,9.8201437
4.72253215,0.2560320199,1.098305583,9.872786522
4.727287306,0.2416750938,1.138983607,9.95414257
4.73204241,0.2321037948,1.136590719,10.0331049
4.736797566,0.2368894368,1.158126116,10.11206818
4.741552723,0.2488535494,1.158126116,10.18863869
4.746307827,0.2871387303,1.201196909,10.2652092
4.751062983,0.3349951804,1.229910851,10.29392338
4.755818139,0.380458802,1.244267821,10.30349445
4.760573243,0.433100909,1.26341033,10.29631615
4.7653284,0.4522434771,1.265803218,10.31306553
4.770083556,0.5072783828,1.284945726,10.29392338
4.77483866,0.5479564071,1.289731383,10.23410225
4.779593816,0.5527420044,1.284945726,10.17906761
4.784348973,0.5814558864,1.296909928,10.09771156
4.789104077,0.6053841114,1.289731383,10.01635551
4.793859233,0.6340979934,1.270588875,9.918250084
4.798614389,0.6963114142,1.284945726,9.805787086
4.803369545,0.708275497,1.292124271,9.753145218
4.80812465,0.7178468108,1.313659668,9.671789169
4.812879806,0.7274180651,1.299302697,9.643074989
4.817634962,0.7178468108,1.270588875,9.638289452
4.822390066,0.7298108935,1.251446247,9.628718376
4.827145223,0.7369893789,1.244267821,9.643074989
4.831900327,0.7776673436,1.244267821,9.611968994
4.836655483,0.8398807645,1.241874933,9.566504478
4.841410639,0.8566305041,1.234696507,9.506684303
4.846165795,0.8685946465,1.210768223,9.430113792
4.8509209,0.8805587292,1.203589797,9.377471924
4.855676056,0.866201818,1.196411371,9.284152031
4.860431212,0.8709874153,1.177268744,9.276973724
4.865186316,0.8781659007,1.179661512,9.272188187
4.869941473,0.94277215,1.21555388,9.281759262
4.874696629,0.9188438654,1.222732425,9.281759262
4.879451733,0.866201818,1.15094769,9.238688469
4.884206889,0.8518448472,1.045663476,9.229117393
4.888962045,0.8303094506,1.021735311,9.31525898
4.89371715,0.7298108935,1.016949654,9.437292099
4.898472306,0.6388836503,1.009771109,9.523433685
4.903227462,0.6125625968,1.040877819,9.626325607
4.907982566,0.6364908218,1.081555843,9.69093132
4.912737723,0.6843472719,1.117448211,9.781859398
4.917492879,0.708275497,1.124626637,9.868000984
