Time (s),Acceleration x (m/s^2),Acceleration y (m/s^2),Acceleration z (m/s^2)
6.003582403,0.0043722425750266376,0.010633890535245251,-0.018326940242075856
6.008358653,0.003577193342530058,0.011450163415234969,-0.02241667986712731
6.013134903,0.0029122839847198025,0.012357247693210874,-0.02653691460491603
6.017911153,0.0024107242817710873,0.013366839190188074,-0.030674833677384324
6.022687455,0.0021042046593689957,0.014490325713312078,-0.034816840355279176
6.027463705,0.002022413883736036,0.015738638272621758,-0.038948628626272276
6.032239955,0.002192579527216562,0.017122095957475915,-0.043055275683673365
6.037016257,0.002639038252003116,0.018650246136325058,-0.04712134974240675
6.041792507,0.0033828425262464887,0.020331701929858573,-0.05113103222254206
6.046568757,0.004441409868753069,0.02217397917841935,-0.05506825290725754
6.051345007,0.005828220124686811,0.02418333537283073,-0.05891683631467841
6.056121309,0.007552565617816799,0.02636461323836659,-0.06266065723142403
6.060897559,0.00961935831421037,0.02872109185416559,-0.06628380312697235
6.065673809,0.012028997362853358,0.03125434835220721,-0.06977074098774737
6.070450059,0.014777299534421742,0.03396413335701401,-0.07310648597934606
6.075226361,0.017855494149066484,0.036848263378345986,-0.07627676927403855
6.080002611,0.021250283076414713,0.039902533339342856,-0.0792682023698113
6.084778861,0.02494396533621979,0.04312065230774309,-0.08206843526571571
6.089555111,0.02891462476019306,0.04649420529863157,-0.0846663059302393
6.094331413,0.03313637811298332,0.05001264373508217,-0.08705197859864194
6.099107663,0.0375796800187562,0.05366330679091031,-0.08921706857756624
6.103883913,0.042211680010757355,0.057431475400491226,-0.09115475144188213
6.108660163,0.04699662604045115,0.06130046020410516,-0.09285985477221358
6.113436465,0.05189630788521117,0.06525172410101529,-0.09432893086549698
6.118212715,0.05687053311281432,0.06926503940972752,-0.09556030911822676
6.122988965,0.06187762762163252,0.07331867890503206,-0.09655412701809953
6.127765215,0.06687495229479506,0.07738963924860941,-0.09731233891161797
6.132541465,0.07181942700008508,0.08145389458647342,-0.09783870200359197
6.137317767,0.07666805304231353,0.08548667736830094,-0.09813873942696032
6.142094017,0.08137842522762628,0.08946278275285,-0.0982196806771809
6.146870267,0.0859092249291976,0.09335689230342743,-0.09809038018652952
6.151646569,0.09022068596388273,0.09714391206413572,-0.0977612152805858
6.156422819,0.09427502571118246,0.10079931956620594,-0.09724396518790855
6.161199069,0.09803683471770815,0.10429951386081328,-0.09655167315464448
6.165975319,0.10147341899366726,0.10762216231483014,-0.09569849404192063
6.170751622,0.10455509027315299,0.11074653764809603,-0.09469953003487712
6.175527872,0.10725540063674643,0.11365383856290076,-0.09357065724299674
6.180304122,0.10955131906236612,0.11632748735510057,-0.09232834602310584
6.185080372,0.11142334867365891,0.1187533981244398,-0.09098947784407069
6.189856674,0.11285558469043265,0.12092020961775204,-0.08957116147271967
6.194632924,0.1138357143347034,0.12281947732132326,-0.08809055119795678
6.199409174,0.11435496117721018,0.12444582013420441,-0.0865646696965516
6.204185424,0.11440797759013592,0.12579701776451185,-0.08501023795116384
6.208961726,0.11399269007739386,0.1268740558636054,-0.08344351435766682
6.213737976,0.11311010326509457,0.12768111683201352,-0.08188014483116612
6.218514226,0.11176406923453568,0.12822551519405295,-0.08033502536859598
6.223290476,0.10996102964925968,0.12851757744386558,-0.07882217816515368
6.228066778,0.1077097387387201,0.1285704672988781,-0.07735464200904485
6.232843028,0.1050209756185565,0.12839995832677548,-0.07594437727842286
6.237619278,0.10190725462225898,0.1280241569036314,-0.07460218542092309
6.242395528,0.09838254227583557,0.12746317938370985,-0.0733376423171627
6.24717183,0.09446198925762612,0.12673878819186404,-0.0721590444542254
6.25194808,0.09016168514371148,0.12587399227056917,-0.07107336641972734
6.25672433,0.0854984429491065,0.12489261791974357,-0.0700862279172189
6.26150058,0.08048961945634385,0.12381885656469269,-0.06920186831225628
6.266276882,0.07515297611089886,0.12267679638828878,-0.06842312663420994
6.271053132,0.06950658389998732,0.12148994508125523,-0.06775142498459626
6.275829382,0.06356877416337506,0.12028075120826642,-0.06718675346368543
6.280605632,0.0573581357567101,0.11907013185758362,-0.06672765502658652
6.285381934,0.05089355743943111,0.11787701433051984,-0.06637120907702106
6.290158184,0.04419431282322797,0.11671789962550176,-0.0661130130558912
6.294934434,0.03728018371983138,0.11560645537097045,-0.06594716176853604
6.299710684,0.03017161629784741,0.1145531456475727,-0.06586622472826145
6.304486986,0.022889903144006653,0.11356490479516732,-0.06586122237532913
6.309263236,0.015457383188326942,0.11264486181305833,-0.0659216026271864
6.314039486,0.007897650552149225,0.11179212133475844,-0.0660352197686615
6.318815736,0.00023576274239935373,0.11100160640180508,-0.06618831815983534
6.323592038,-0.0075015617438701,0.11026396738434222,-0.0663655236287514
6.328368288,-0.01528576641030769,0.10956556040717368,-0.06654984575319307
6.333144538,-0.02308631011954799,0.10888849755006862,-0.06672269452966934
6.337920788,-0.030870560059515398,0.10821076991750606,-0.066863915144235
6.34269709,-0.03860373275937365,0.10750644343912905,-0.06695184463191592
6.34747334,-0.04624889057198978,0.10674592599923187,-0.06696339408848365
6.35224959,-0.053766999828965545,0.10589630323778693,-0.06687415978659368
6.35702584,-0.061117055516026586,0.10492173914845213,-0.06665856610121197
6.361802142,-0.06825627585194992,0.10378393644609603,-0.0662900426198919
6.366578392,-0.07514036862132273,0.10244265061577895,-0.06574123721260051
6.371354642,-0.08172386953406216,0.10085625062021264,-0.06498426612787815
6.376130944,-0.08796055127004075,0.0989823184606065,-0.06399100133022495
6.380907194,-0.09380390021962377,0.09677827916494545,-0.06273339431082527
6.385683444,-0.09920765627000273,0.09420205230788228,-0.06118383455095601
6.390459694,-0.10412640935222006,0.09121271583011387,-0.05931553975531736
6.395235997,-0.10851624489940968,0.0877711727103111,-0.05710297392538371
6.400012247,-0.11233542890652862,0.0838408109466381,-0.054522288304741685
6.404788497,-0.11554512194481624,0.07938814732874638,-0.05155177919750803
6.409564747,-0.11811011027956786,0.07438344562330575,-0.048172355668918254
6.414341049,-0.1199995411722419,0.06880130005026802,-0.04436800924429629
6.419117299,-0.12118764852998978,0.06262117528234754,-0.040126276982008366
6.423893549,-0.12165445433240367,0.0558278946426026,-0.03543868872087203
6.428669799,-0.12138643077355322,0.048412068692323305,-0.03030118886898303
6.433446101,-0.12037710786890844,0.0403704569933098,-0.02471452278774393
6.438222351,-0.11862761143877039,0.03170625651294374,-0.018684577650434953
6.442998601,-0.11614711691535996,0.022429310947176265,-0.012222667669711758
6.447774851,-0.11295320532995494,0.012556236192582029,-0.005345753837141361
6.452551153,-0.10907210910362398,0.002110458312163349,0.0019234111844614982
6.457327403,-0.10453883686452596,-0.008877838409274452,0.009556221634032922
6.462103653,-0.09939716841659717,-0.02037185437758858,0.017518248327002016
6.466879903,-0.09369951315831841,-0.03232840823014788,0.025769365826963143
6.471656205,-0.08750662765921048,-0.04469825925615482,0.034263981979945006
6.476432455,-0.08088719068859498,-0.057426515556232426,0.042951372855539426
6.481208705,-0.07391723667226793,-0.07045312345404332,0.05177612405693783
6.485984955,-0.06667945122759025,-0.08371343239127862,0.06067867705962145
6.490761257,-0.059262334999345447,-0.09713882834025227,0.06959597674959504
6.495537507,-0.0517592444165832,-0.1106574276753567,0.07846221369437337
6.500313757,-0.04426732018124316,-0.12419482247989228,0.08720965195539951
6.505090059,-0.03688631627862977,-0.13767486745838334,0.09576953052937782
6.509866309,-0.02971734407046316,-0.15102049800965753,0.10407302389219761
6.514642559,-0.022861547584419176,-0.16415456862213912,0.11205224472416067
6.519418809,-0.016418727429800987,-0.17700070059666137,0.11964126985004676
6.524195111,-0.010485931831566547,-0.18948412817742907,0.12677716887395604
6.528971361,-0.005156034082652915,-0.20153253244595024,0.13340101403257673
6.533747611,-0.0005163162716255592,-0.21307685275619237,0.139458849474822
6.538523861,0.0033529205495470716,-0.22405206601132716,0.1449025985110387
6.543300163,0.006379699529800948,-0.23439792466420067,0.14969088836762517
6.548076413,0.008501644451223648,-0.2440596449411929,0.15378977361677482
6.552852663,0.009667169726075236,-0.2529885374286258,0.15717334166122393
6.557628913,0.00983656478811205,-0.26114257281287495,0.15982418634340337
6.562405215,0.008982954403720263,-0.2684868762234031,0.1617337388220963
6.567181465,0.007093117304542771,-0.27499414428743857,0.1629024482244525
6.571957715,0.004168146639332264,-0.28064497966188984,0.1633398081240964
6.576733965,0.00022393707738772148,-0.28542813846930337,0.1630642284740773
6.581510267,-0.004708515087570114,-0.28934068676513885,0.1621027560846792
6.586286517,-0.01058301086856247,-0.292388062956825,0.16049064998053242
6.591062767,-0.017338256846397993,-0.2945840440106323,0.15827082098966652
6.595839017,-0.024898191029754976,-0.2959506142964767,0.15549314773802697
6.600615319,-0.03317253210636988,-0.2965177369738476,0.15221368382554298
6.605391569,-0.042057554873415906,-0.2963230288560234,0.1484937732465125
6.610167819,-0.0514370911039724,-0.2954113406522041,0.14439909295082468
6.614944122,-0.06118375112020341,-0.2938342453139549,0.1399986427009111
6.619720372,-0.0711603570851828,-0.29164943787069536,0.1353637029920385
6.624496622,-0.08122157470545008,-0.28892005074068483,0.13056678175076217
6.629272872,-0.0912157257208984,-0.2857138893123075,0.12568056982548237
6.634049174,-0.10098675919325119,-0.28210259380543706,0.12077692401407919
6.638825424,-0.11037635524474254,-0.27816073497511845,0.11592589468926612
6.643601674,-0.11922613078185654,-0.2739648528511373,0.1111948131333731
6.648377924,-0.1273799131216506,-0.269592449210528,0.1066474515580631
6.653154226,-0.13468604448720436,-0.2651209457999778,0.10234326648947753
6.657930476,-0.14099967817089162,-0.2606266214762772,0.0983367337754474
6.662706726,-0.14618502587952398,-0.256183542407293,0.09467678095747015
6.667482976,-0.15011751543589338,-0.25186250022521706,0.09140632019671056
6.672259278,-0.15268581863842906,-0.2477299734918127,0.08856188243014695
6.677035528,-0.15379371067770706,-0.24384712798896557,0.08617335106727017
6.681811778,-0.15336172506172674,-0.2402688711848946,0.08426379143098148
6.68658808,-0.15132857146293147,-0.23704297576490604,0.08284937039678106
6.69136433,-0.147652288170909,-0.23420928637802227,0.08193935936620683
6.69614058,-0.14231110577141196,-0.23179902275367892,0.08153621286013259
6.70091683,-0.135304004114632,-0.22983419109870074,0.0816357146242236
6.705693132,-0.12665095044464847,-0.2283271142133655,0.08222718315557298
6.710469382,-0.11639281263247146,-0.2272800890965004,0.08329372893304299
6.715245632,-0.10459094768146017,-0.2266851789751492,0.08481255631709278
6.720021882,-0.09132647188872636,-0.22652414471524024,0.08675530399697672
6.724798184,-0.07669922503537213,-0.22676851846066362,0.0890884188497428
6.729574434,-0.06082644661260987,-0.22737982016119515,0.0917735589654017
6.734350684,-0.04384118737279868,-0.22830991550765858,0.09476802231409354
6.739126986,-0.025890484397781775,-0.22950151182781467,0.09802519813022353
6.743903236,-0.007133332236525955,-0.2308887867378283,0.10149503861795027
6.748679486,0.012261513700066616,-0.23239814271147205,0.1051245490082349
6.753455736,0.032117862464993326,-0.23394907914389373,0.10885829422853764
6.758232038,0.05225450059031056,-0.23545517194245327,0.11263892041748677
6.763008288,0.07248765060174578,-0.23682514920470996,0.11640768923708295
6.767784538,0.0926334325380453,-0.2379640501583089,0.12010502248078048
6.772560788,0.11251028648982177,-0.23877445323349622,0.12367105394562505
6.77733709,0.13194131545898213,-0.23915775792900457,0.12704618498777906
6.78211334,0.15075650993914594,-0.23901550410092348,0.13017163961100742
6.78688959,0.16879481861812412,-0.2382507115961413,0.13299001435090052
6.79166584,0.1859060334922728,-0.23676922285238972,0.13544581770106406
6.796442142,0.20195246225532854,-0.23448103113254717,0.1374859935240621
6.801218392,0.21681036580815044,-0.23130157731153952,0.13906042288108525
6.805994642,0.23037114393845112,-0.22715299850954304,0.14012239895921022
6.810770944,0.24254225752014902,-0.22196531238010136,0.14062907016819076
6.815547194,0.25324788086219285,-0.2156775215650572,0.1405418469381958
6.820323444,0.2624292829807192,-0.20823862374651533,0.13982676823854098
6.825099694,0.2700449414838321,-0.19960851385244682,0.1384548243214074
6.829875997,0.27607039736153566,-0.18975876627742505,0.13640223261947365
6.834652247,0.2804978631707586,-0.17867328642507754,0.13365066404379333
6.839428497,0.28333560080125897,-0.16634882242860505,0.13018741712386722
6.844204799,0.28460708812353164,-0.15279532952656788,0.12600553752588428
6.848981049,0.28434999630557317,-0.13803618121665723,0.12110388052419334
6.853757299,0.28261500142411994,-0.12210822290850373,0.11548711405080066
6.858533549,0.27946445517778734,-0.10506166524977253,0.10916566007384693
6.863309851,0.2749709400234853,-0.08695981551722845,0.10215557228900914
6.868086101,0.26921573400065646,-0.06787864647011024,0.09447834841969066
6.872862351,0.26228721020282536,-0.04790620308734405,0.08616067578400696
6.877638601,0.2542791956757562,-0.027141848962146886,0.07723410928647889
6.882414903,0.24528931453258726,-0.005695355913791076,0.06773468184174442
6.887191153,0.2354173399956237,0.01631415759005574,0.05770244860638205
6.891967403,0.22476357954386256,0.038759431641720195,0.04718096826085174
6.896743705,0.21342731607289323,0.061506404579445416,0.03621672674853607
6.901519955,0.20150532578556118,0.08441567697550595,0.02485851105308365
6.906296205,0.18909049067254666,0.1073440891831352,0.013156742461985125
6.911072455,0.17627052075760807,0.13014640100406424,0.0011627801231749398
6.915848757,0.1631267996689919,0.15267706051655236,-0.011071793336079085
6.920625007,0.14973336666980636,0.17479204653609567,-0.023495891400446754
6.925401257,0.13615604828383926,0.19635076599804233,-0.03605963445580978
6.930177559,0.12245175219460547,0.21721798441959433,-0.04871503620179799
6.934953809,0.10866793476318809,0.23726576497011392,-0.061416648665947336
6.939730059,0.09484225131654567,0.2563753897674608,-0.07412214790119419
6.944506309,0.0810023953467184,0.2744392360355526,-0.0867928423567988
6.949282611,0.06716612902528471,0.2913625798357922,-0.09939408676047333
6.954058861,0.05334150348319765,0.30706530083788447,-0.11189558624799707
6.958835111,0.03952726392969189,0.3214834621299066,-0.12427157834480984
6.963611361,0.02571343226925709,0.3345707387809654,-0.13650088377353134
6.968387663,0.011882058068173822,0.34629966808639845,-0.14856682030833526
6.973163913,-0.0019918731227605664,0.3566626940246012,-0.16045697671764528
6.977940163,-0.015939387348589185,0.3656729790861433,-0.17216284638414736
6.982716465,-0.029996341755807746,0.37336495849768636,-0.18367932279448548
6.987492715,-0.04420213526300097,0.37979461495593825,-0.1950040619893492
6.992268965,-0.058598333004015936,0.3850394561159969,-0.2061367203915114
6.997045215,-0.07322722989989247,0.38919818159175573,-0.21707808020671754
7.001821517,-0.08813038006614052,0.39239003022971214,-0.22782907856202955
7.006597767,-0.10334711863884792,0.3947538015452271,-0.23838976012772795
7.011374017,-0.11891310159866049,0.396446547979078,-0.24875817559192456
7.016150319,-0.13485888788236025,0.397641937884034,-0.25892924986794774
7.020926569,-0.15120858670686815,0.3985282933273301,-0.2688936446164459
7.025702819,-0.16797859157851885,0.3993063118573041,-0.27863664000358646
7.030479069,-0.18517642098371825,0.4001864871800326,-0.288137060887165
7.035255372,-0.20279968429973216,0.40138625004980955,-0.2973662729385497
7.040031622,-0.2208351896971412,0.4031268571342917,-0.30628727460438565
7.044807872,-0.23925820818862825,0.40563006146278086,-0.31485391117697786
7.049584122,-0.25803190448064633,0.4091146028703683,-0.3230102371966709
7.054360424,-0.27710694153762916,0.4137925607479802,-0.33069005246457617
7.059136674,-0.29642126234366356,0.4198656147939127,-0.33781663486825186
7.063912924,-0.3159000492801912,0.4275212625696095,-0.34430269019237814
7.068689226,-0.3354558586575449,0.43692904549056466,-0.35005053548987786
7.073465476,-0.3549889252495961,0.4482368373579866,-0.35495252876044436
7.078241726,-0.3743876293471296,0.461567251641659,-0.3588917537978658
7.083017976,-0.39352911698137905,0.4770142254882158,-0.3617429651855398
7.087794278,-0.412280062467543,0.49463983976149745,-0.3633737945737189
7.092570528,-0.4304975610173335,0.5144714349522338,-0.3636462155813929
7.097346778,-0.44803013782445683,0.536499081965128,-0.36241826083164425
7.10212308,-0.46471885902745885,0.5606734642065526,-0.3595459805028335
7.10689933,-0.4803985295198604,0.586904223108557,-0.35488562718769207
7.11167558,-0.4948989626224212,0.6150588136639515,-0.34829604694556804
7.11645183,-0.5080463070527043,0.6449619101597194,-0.3396412515781533
7.121228132,-0.5196644175451655,0.6763953953212688,-0.32879314265341214
7.126004382,-0.5295762571245464,0.7090989586573221,-0.3156343537854136
7.130780632,-0.5376053214679283,0.7427713220450662,-0.3000611742824084
7.135556934,-0.5435770786106263,0.7770721024236772,-0.28198651466691077
7.140333184,-0.5473204197174031,0.8116243125133988,-0.26134287270947854
7.145109434,-0.5486691182376506,0.8460174905587301,-0.23808525710648765
7.149885684,-0.5474632955885501,0.879811439582143,-0.21219402430337683
7.154661986,-0.5435508920060997,0.9125405462480418,-0.18367758209610263
7.159438236,-0.5367891417560406,0.9437186397807737,-0.15257491180532098
7.164214486,-0.52704605274514,0.9728443428030926,-0.11895785942000607
7.168990736,-0.5142018916309482,0.9994068584958231,-0.08293314552137053
7.173767038,-0.4981506760742916,1.022892131676742,-0.044644044243604165
7.178543288,-0.47880167484049213,1.0427893145914058,-0.004271682891066196
7.183319538,-0.4560809137847931,1.05859746126547,0.03796408429447408
7.18809584,-0.42993268208335705,1.0698323678221133,0.08180427260300377
7.192872351,-0.40032102932523106,1.0760334710227089,0.1269508753767885
7.197648288,-0.3672312407932986,1.0767707138852098,0.17306752287848226
7.202424642,-0.33067127565515503,1.0716512857059408,0.21978072491056325
7.207200892,-0.29067315081078765,1.060326144046065,0.2666817241081572
7.211977142,-0.24729425124366192,1.0424962276944638,0.3133289788026429
7.216753392,-0.20061854513515193,1.0179182714960895,0.35925128518927096
7.221529694,-0.15075767865243295,0.986410135929496,0.40395153884289137
7.226305944,-0.09785192201071909,0.9478555668428696,0.44691112577166764
7.231082194,-0.04207093602963628,0.9022083043625989,0.48759492304105284
7.235858497,0.01638567267626033,0.8494954648444111,0.5254568782005496
7.240634747,0.07728803944673769,0.7898201257838056,0.559946125175352
7.245410997,0.14037600213695853,0.7233630508425705,0.5905135820990232
7.250187247,0.20535936143470046,0.650383500541417,0.616618964064315
7.254963549,0.2719184643742397,0.5712190833958235,0.6377381314011107
7.259739799,0.3397051310212671,0.48628461196718215,0.6533706825013287
7.264516049,0.4083439408179564,0.39606993850780675,0.6630476900482047
7.269292351,0.47743389106228284,0.3011367559518334,0.6663394710702557
7.274068601,0.5465504351405636,0.2021143621116821,0.662863274473282
7.278844851,0.6152479024219207,0.09969439795723463,0.6522907645313333
7.283621101,0.6830622950991255,-0.005375415314745699,0.634355175315076
7.288397403,0.7495144496546197,-0.11229850105962164,0.6088580092668773
7.293173653,0.8141135424621189,-0.2202375592050002,0.5756751530548112
7.297949903,0.8763609112873442,-0.3283235356969227,0.5347622855619402
7.302726205,0.9357541579065233,-0.4356653449257013,0.48615945681277584
