Time (s),Acceleration x (m/s^2),Acceleration y (m/s^2),Acceleration z (m/s^2)
6.002799849,0.0013635044872292539,0.0072474410919502455,0.07291358037226289
6.007799882,0.017951275360940162,0.010206588246697934,0.10980296486813745
6.012800215,0.03412300648299983,0.013589811311770412,0.1458488546474068
6.017800215,0.04944237442465764,0.017673109518322672,0.180314731206054
6.022800181,0.0635234116093043,0.0226566435760208,0.21239230448726326
6.027800147,0.07604739795887697,0.028639784354593474,0.2412042373630328
6.032800113,0.08677202439198084,0.03560454935089337,0.2658415805558259
6.037800113,0.09553300300471725,0.04341169584930004,0.2854329795226364
6.042800146,0.1022396617094402,0.05181132702816949,0.29923690784659573
6.047800179,0.10686695069697706,0.060466002477758914,0.3067444309471096
6.052800212,0.10944642427135363,0.06898118796839445,0.30777782968827533
6.057799545,0.11005811633354493,0.07693734421107308,0.3025694687336302
6.062798645,0.10882416261141939,0.0839202919139519,0.2918058689638705
6.067798611,0.10590408183956448,0.08954993341744133,0.2766246829147248
6.072797944,0.1014911455113202,0.09350931927921367,0.2585575381530445
6.077797277,0.09580920945395527,0.09557482586843426,0.23941910598416055
6.08279731,0.08910952575206249,0.0956445776836739,0.22115104322092277
6.08779731,0.08166721355274696,0.09375880757492246,0.20563695779174548
6.09279731,0.07377717467492871,0.09010518643719834,0.19450973481563746
6.097797276,0.065749283694142,0.08500499917966209,0.1889745498227034
6.102796576,0.057902618037122586,0.0788809236233592,0.189669634465633
6.107796542,0.05055829179221299,0.07221161402152487,0.19658293878444516
6.112796542,0.04403023575583577,0.06548044497707033,0.20903703060175782
6.117797008,0.03861324542786684,0.05912535283826997,0.22574741063040488
6.122797041,0.03456790905867466,0.053494913450881316,0.24495117875036396
6.127797074,0.03210258134364234,0.048814251676459794,0.2645941481070364
6.132797107,0.03135331469577592,0.04516389499270715,0.2825561783565552
6.137797107,0.03236353192892185,0.042474708889665876,0.29688834055115554
6.142797107,0.03506605702163431,0.04054127561293095,0.3060330761760253
6.147797073,0.03927067447904121,0.039053606735118276,0.3090004007450092
6.152797073,0.044660459982496854,0.03764329126602131,0.3054788541443878
6.157797073,0.05079956812701935,0.03593668334880278,0.29586795293114654
6.162797106,0.05715390779929733,0.033606372804837976,0.28122792861230766
6.167797106,0.0631243460352041,0.030413676425768185,0.2631516262959053
6.172797106,0.06809020984669925,0.026238222012526968,0.24357225471680286
6.177797106,0.0714593952254303,0.02109385875054371,0.224528931223082
6.182797106,0.07272056581453927,0.015131519875290366,0.20791874544797972
6.187797106,0.07149263243436321,0.008629160157156547,0.1952677627488383
6.192797072,0.06756674723866757,0.0019679453452776234,0.18755236901310532
6.197797072,0.06093638090027424,-0.004405553400368245,0.185095898607358
6.202797072,0.05181182459146561,-0.010028524528523737,0.18755434228399578
6.207797772,0.040616778594868105,-0.014475850512432003,0.1939912613770201
6.212798672,0.0279664523928225,-0.017409603165843612,0.20302869915829608
6.217798672,0.014628535473866479,-0.01861543364380859,0.21305040015746168
6.222799305,0.0014701933415959905,-0.018020881664860933,0.22242741936044785
6.227799971,-0.010604355873227861,-0.015695635202529385,0.229734422102229
6.232799971,-0.020720300998456617,-0.011837622648844175,0.23392718184052474
6.237800004,-0.028097199921441246,-0.006749988662574799,0.23445749838726127
6.242800037,-0.032107387500030025,-0.0008128023469050206,0.23131065220771588
6.247800037,-0.03232360864443844,0.00554851751902354,0.22496198639164333
6.252800703,-0.028552523271639072,0.011896806447548678,0.2162619234518798
6.257800036,-0.020851545274363916,0.017816505058498154,0.20627051608796274
6.262800036,-0.009527500902070034,0.02294269397606094,0.1960709625142733
6.267799569,0.00488287886143541,0.026981162349724665,0.18659432133462314
6.272799535,0.021648686403610725,0.02971676520051189,0.1784842105753864
6.277799535,0.03989307672735264,0.03101115945159849,0.17202152912625898
6.282799535,0.05864930633329917,0.030794656788202132,0.16711743744281335
6.287799568,0.07691978998284364,0.029058258099116097,0.16337062183176165
6.292799568,0.0937340146375053,0.02585015971027565,0.16017446050312892
6.297799568,0.10820213459207674,0.02127712884330083,0.1568525045943729
6.302799534,0.11956216762053826,0.015507343282957792,0.1527972950106981
6.3077995,0.12721966404226517,0.0087697399202334,0.14758804300689174
6.312799466,0.1307792529767335,0.0013463220487646465,0.14106692611354885
6.317799466,0.13006743455595499,-0.006442966064051559,0.1333612713457583
6.322799499,0.1251454988805237,-0.014260422729325912,0.12484882260897057
6.327799532,0.11631085763186834,-0.02177264729832912,0.11607403479318136
6.332799565,0.10408478413650853,-0.02867243585190155,0.10763275505209761
6.337799565,0.08918489748122906,-0.03470008805051927,0.10004857518737524
6.342799565,0.07248185212195894,-0.039663981998302386,0.0936651426219326
6.347799531,0.054941539658734544,-0.04345867148225098,0.08857471427982885
6.352799531,0.037556357635403805,-0.04607652292367638,0.08459552798821868
6.357799531,0.021271245076670667,-0.04760810969122923,0.08130123567860349
6.362799564,0.006911711684354805,-0.048228477578341845,0.07809666658068383
6.367799597,-0.004878337449270091,-0.048170464602650946,0.07432683646019644
6.372799597,-0.013681707460226235,-0.04769046636492023,0.0694009644130921
6.377799563,-0.01933037399341696,-0.04703411101945597,0.06291056602904711
6.382799529,-0.021902534148286208,-0.04640822888116733,0.054720783924552985
6.387799495,-0.02169505774753987,-0.045962193473546624,0.04501745004869766
6.392799461,-0.019175778472456426,-0.045778344117371694,0.034299175117769184
6.397799461,-0.01492286218162178,-0.04586966834222084,0.0233133950880012
6.402799494,-0.009559751863476804,-0.04618361440964163,0.012945961325504443
6.407800194,-0.0036937517510687323,-0.04661254214454935,0.004083000781492981
6.412800227,0.0021353822969178895,-0.0470119447077038,-0.0025308975835513785
6.417800227,0.007492719545603167,-0.04722605859889607,-0.00641377765481253
6.422800227,0.012069444463643638,-0.04711743957474518,-0.007426682918376868
6.427800193,0.01568843274444417,-0.04659444103127939,-0.005800903759728749
6.432800193,0.018296228944571263,-0.045630136481535896,-0.0021086003678300667
6.437800193,0.01994481902749699,-0.04426858456458041,0.0028181775735127484
6.442800226,0.020767079230741985,-0.042618271608750175,0.008007768308145218
6.447800226,0.020949532407173524,-0.04083599113424449,0.01249048185548131
6.452800326,0.020705334383569383,-0.03910569720550253,0.015439823804797744
6.457800326,0.02024959868499395,-0.03761590876407404,0.016290813179839023
6.462800326,0.019778516803608797,-0.036537447123513554,0.014815681317413405
6.467800326,0.019453277578917516,-0.03600236937674875,0.011144132599389447
6.472800292,0.019389348922366823,-0.036085627484405934,0.005725396655428957
6.477800292,0.01965109530894529,-0.03679252143417615,-0.0007597547986876345
6.482800292,0.020251023497795933,-0.03805586719476368,-0.007519833040045075
6.487800325,0.021152413791691794,-0.03974563904254008,-0.013784150361450583
6.492800358,0.0222739547654412,-0.041690537052528245,-0.018922669689066064
6.497800358,0.023495354792378475,-0.04370684743360646,-0.02253563389736025
6.502800324,0.024663578819461313,-0.04562730413137204,-0.024500764788658147
6.50780029,0.025599983157522977,-0.047323036755943085,-0.024973164362440636
6.51280029,0.026108909445048553,-0.04871496345609359,-0.02434026788670609
6.51780029,0.025988190137411753,-0.04977525461254529,-0.023140598907469126
6.522800323,0.025041593801732806,-0.050522320499678246,-0.021960190389020553
6.527800323,0.023092700227639845,-0.051012888530220485,-0.02132388495728205
6.532800323,0.019999325157065092,-0.051332836448542536,-0.021599704871993166
6.537800323,0.015667550224408598,-0.0515864544973643,-0.022932506609627454
6.542800323,0.010064540251236561,-0.05188333356501329,-0.02521814483038046
6.547800323,0.0032294603314539996,-0.052323424070733,-0.028122261410819523
6.552800289,-0.004718173951499227,-0.05298290966860414,-0.031140215201833393
6.557800289,-0.013573511271447174,-0.05390466482150519,-0.03368815157077989
6.562800289,-0.0230457755647319,-0.055096054286164396,-0.03521069202529945
6.567800322,-0.03276330196797524,-0.056534015345880276,-0.03528842970255385
6.572800322,-0.042285467513438466,-0.05817440843590063,-0.033728183563747786
6.577800322,-0.05112260249022186,-0.05996138712199107,-0.030620574397397522
6.582800288,-0.05876447954681183,-0.06183377818803354,-0.026352933339035736
6.587800254,-0.06471708808858277,-0.06372823900049814,-0.02157106706648211
6.59280022,-0.06854607653778834,-0.06558123852184079,-0.017091051148964597
6.59780022,-0.069923592955765,-0.06733207903000799,-0.013771303847908303
6.602800153,-0.06867356431721244,-0.06892727249635866,-0.012363948311497728
6.607800186,-0.06480915336936141,-0.07032416506613112,-0.013370512496418041
6.612800219,-0.058555679557643715,-0.07149068025347888,-0.016928337095856626
6.617800252,-0.05035307195889316,-0.07239945050487188,-0.022750001735107904
6.622800252,-0.04083411732029272,-0.07301781817509773,-0.030129592825815118
6.627800218,-0.03077816857967518,-0.07329819647340333,-0.03801875350719214
6.632800184,-0.02104392091982106,-0.07317402325185683,-0.04516437782848663
6.637800184,-0.012488416148096258,-0.07256444212497984,-0.05029018051010431
6.642800184,-0.00588178233673051,-0.07138719658846858,-0.05229706862090234
6.647800217,-0.0018279377408599992,-0.06957614845679178,-0.05045273468939127
6.652800217,-0.0007006633322215324,-0.06709884552704647,-0.04453980471301666
6.657800217,-0.002602494765772919,-0.06397070187627404,-0.034935146919989085
6.662800183,-0.007351255775268352,-0.06026428957870896,-0.022601335737393445
6.667800149,-0.014496024028319152,-0.056113302522549376,-0.008984484226941735
6.672800115,-0.023361018608376367,-0.05171027035232268,0.004171249559512867
6.677800115,-0.03311252352331096,-0.047295994001865425,0.01506665325021329
6.682800148,-0.0428409625491507,-0.04313868904247258,0.0221109485717762
6.687800181,-0.05164830071763053,-0.039503032521126885,0.024164582848081567
6.692800214,-0.058730666565918924,-0.03661312620624,0.020723439149552002
6.697800214,-0.06344755494120727,-0.03461681815937108,0.012015966343560036
6.702800214,-0.06537164735069495,-0.03355979117204355,-0.0010022433754192813
6.70780018,-0.06431633724030691,-0.033375632901478096,-0.016757538967809207
6.71280018,-0.06034075217195981,-0.03389385263282266,-0.03325795227698535
6.71780018,-0.05373404898583663,-0.03486354682226864,-0.0483578305584991
6.722800213,-0.04498202045022698,-0.03598780444180406,-0.060051402066309996
6.727800213,-0.034719877143188,-0.03696340683812192,-0.0667533205558984
6.732800213,-0.02367579081284371,-0.03752104680522147,-0.06752420336591418
6.737800213,-0.012610471636843566,-0.03746179952719928,-0.062206258686428484
6.742800213,-0.002258399753972494,-0.03668529921140148,-0.05144783356394861
6.747800213,0.006724061224104965,-0.035204760695533646,-0.036613600477861545
6.752800179,0.013799704282699573,-0.033145016071959056,-0.01959527352874478
6.757800145,0.01857855028344541,-0.03072273281918581,-0.002552428546741442
6.762800145,0.020832677901321935,-0.02821217338834821,0.012378205238419596
6.767800145,0.020498857020510054,-0.02590356719165652,0.023364230390321112
6.772800178,0.017670593363726984,-0.024062739243914045,0.029112231832219986
6.777800178,0.012581189872089931,-0.02289931355649263,0.029025385697610165
6.782800178,0.00557930835198828,-0.022547233168055097,0.02326451348038648
6.787800144,-0.002901327298297055,-0.023057351954398016,0.012706202490178268
6.792800144,-0.012375921875011844,-0.02439942879714937,-0.001194055457849722
6.797800144,-0.02234353858134131,-0.026470827456125584,-0.01661213221431721
6.802800177,-0.032320022331882664,-0.029110726559092245,-0.03160683908147589
6.807800177,-0.04186642459568221,-0.03211973592119058,-0.04437554799459706
6.812800177,-0.05061131779333331,-0.03528404379276875,-0.05347800940348959
6.817800177,-0.05826621579872285,-0.038400918985698404,-0.057999942134226885
6.822800177,-0.06463377924439218,-0.04130046456266041,-0.05763916361229408
6.827800177,-0.06960863491456107,-0.043858819143249836,-0.05270912808988769
6.832800143,-0.0731707805261445,-0.04600083443185701,-0.04406554035752048
6.837800143,-0.07537199179089421,-0.04769413218003549,-0.03297024914506886
6.842800143,-0.07631651169982259,-0.04893907288074776,-0.020912790772172576
6.847800176,-0.07613838889731916,-0.04975906748309959,-0.009413705249704104
6.852800176,-0.07497871866218155,-0.050193227040272265,0.0001652735965670021
6.857800176,-0.07296629896371545,-0.05029050746288425,0.006781203632368836
6.862800142,-0.0702046189506753,-0.050103295378950134,0.00982224774273254
6.867800108,-0.0667667351996617,-0.04967951006974321,0.00916160358799908
6.872800074,-0.06269788147773063,-0.04905470489657692,0.005150123710235153
6.877800074,-0.05802417195545473,-0.04824727033318044,-0.0014481944087910775
6.882800074,-0.052764889228788,-0.04725916840321973,-0.009568032117984668
6.887800107,-0.046945652876285784,-0.04608198788043282,-0.017987980988719118
6.89280014,-0.040610085571140375,-0.04470543509796156,-0.025492396638378448
6.897800173,-0.03382824782580288,-0.04312462963116494,-0.03103124771698421
6.902800173,-0.026700968199703037,-0.04134422350384978,-0.03385884042917913
6.907800173,-0.01936015469791505,-0.03938013417047527,-0.03363375667526566
6.912800139,-0.011966067077966852,-0.03726156646559098,-0.03046619085377259
6.917800139,-0.004703068968910168,-0.03503563959548517,-0.024905051584759693
6.922800139,0.002224705159653693,-0.032774530742142004,-0.017865024755153745
6.927800172,0.008597053266854884,-0.0305822326516036,-0.010502031084897478
6.932800172,0.014181104465067243,-0.028596731508694226,-0.004052721774896577
6.937800172,0.018735626475001956,-0.026984480452189385,0.0003412411920982363
6.942800138,0.022017828802558276,-0.02592667860314383,0.001800804481528487
6.947800104,0.02379400475541449,-0.02559937312279514,-0.0001542937948743342
6.95280007,0.023854639353909968,-0.02615052424349413,-0.005521487299382019
6.95780007,0.02203369326260709,-0.027676950434167336,-0.01379862433173262
6.962800103,0.018230875017758406,-0.030203594579014902,-0.024041026389165127
6.967800136,0.01243491646880333,-0.03366783310986689,-0.03498796252643984
6.972800169,0.004745188478626367,-0.03791250868573445,-0.04524252396983581
6.977800169,-0.004611503722486791,-0.04269183974910428,-0.05347897439016764
6.982800169,-0.015272304346961417,-0.04769304163295393,-0.058645795073241344
6.987800135,-0.026740997014575944,-0.05257301120122132,-0.060132208303465745
6.992800101,-0.03840438671500563,-0.05700483092278575,-0.05787093948626602
6.997800101,-0.04956351304698021,-0.060725197016608695,-0.05235933465960829
7.002800134,-0.059479146507524935,-0.06357302621590034,-0.04459316186764626
7.007800167,-0.06742899432603217,-0.06551186525965827,-0.03592078986292309
7.012800167,-0.07277186997358515,-0.06663305237734912,-0.027838206913632747
7.017800167,-0.07501212902780206,-0.067140818443739,-0.02175572207999929
7.022800167,-0.07385647510342304,-0.0673231213497103,-0.01877330294758912
7.027800167,-0.06925528496275064,-0.06751275951567227,-0.01950167552706448
7.032800167,-0.06142207980399173,-0.06804318361556841,-0.02395980495966272
7.037800133,-0.0508274321148043,-0.0692035895029721,-0.031567017622097855
7.042800133,-0.038166844220202036,-0.07119870336847677,-0.041232159853692676
7.047800133,-0.024305305035147814,-0.07411948828392317,-0.0515259350136562
7.052800166,-0.010203922479547555,-0.07793057178901351,-0.06090889865762171
7.057800166,0.0031638832971436523,-0.08247765116588573,-0.06797872027269862
7.062799499,0.014897792422787288,-0.08751383571622907,-0.07169736344698856
7.067798565,0.024248471266999357,-0.09273942500254792,-0.0715618798199993
7.072798531,0.030679803081178753,-0.09784686080393452,-0.06769092595420337
7.077797831,0.03390952735668875,-0.10256249919942219,-0.060811844351560417
7.082797764,0.03392523728405904,-0.10667896004189983,-0.05214870520613819
7.087797797,0.030975620484252762,-0.11007461728795233,-0.04322798505670832
7.09279783,0.02553930911800433,-0.11271888326610803,-0.035632882840460095
7.097797863,0.018275530214458803,-0.11466303840575086,-0.03074677333601895
7.102796963,0.009961982591337631,-0.11601736327442409,-0.029528715699326066
7.107796963,0.0014261648924477801,-0.11691732037246036,-0.032358514795148015
7.112796929,-0.0065232067350359975,-0.11748462422735217,-0.038976668137108005
7.117796895,-0.01315817340899695,-0.11779196028205825,-0.04852815266267766
7.122796895,-0.017881328275103615,-0.11784087333398667,-0.059701575492524285
7.127796928,-0.02025975155100549,-0.11755964632319271,-0.07093973791750366
7.132796961,-0.020041913209621093,-0.11682233969650853,-0.08068648444829067
7.137796961,-0.017158818622513783,-0.115483752752858,-0.08762934135502495
7.142796961,-0.011712443535346558,-0.11342056795822182,-0.09089856188682414
7.147796927,-0.003955282257160687,-0.11056806894470482,-0.09019060270709936
7.152796893,0.005735371312821332,-0.10694447503087381,-0.0857967466107914
7.157796859,0.016885660839065585,-0.10265930624209245,-0.0785337624220334
7.162796859,0.028954244464944916,-0.09790601000294537,-0.06959056248754988
7.167796892,0.041361475456083596,-0.09294114606798631,-0.06031956972885132
7.172796925,0.05351866232262445,-0.08805320383270308,-0.05201076533050595
7.177796958,0.06485778778834339,-0.08352488507865492,-0.04568807164834973
7.182796958,0.0748619883132616,-0.07959410991202413,-0.04196171123816321
7.187796958,0.08309638741568506,-0.07642052276690524,-0.0409583472551921
7.192796924,0.08923758365257803,-0.07406451288315564,-0.042336167868936694
7.197796924,0.09309857201440747,-0.07248366492270482,-0.04537764682985262
7.202796924,0.09464477749011703,-0.07154736179618656,-0.04914072759883396
7.207796957,0.09399691027389512,-0.07106557837812892,-0.05264088106017071
7.212797623,0.09141786883992133,-0.07082476050349941,-0.05503244161271892
7.217798523,0.0872836343482173,-0.07062326771088787,-0.05575818322651279
7.222798523,0.0820411859165295,-0.07030079885966603,-0.05464147558523961
7.227799189,0.07615899532763157,-0.06975889896063517,-0.05190526222330467
7.232799255,0.07007705599695488,-0.0689714021886392,-0.04811525578328174
7.237799221,0.06416351648515152,-0.06798401514207734,-0.044058797808832297
7.242799187,0.0586838982941649,-0.06690210748312948,-0.04058281297711757
7.247799187,0.05378674553569787,-0.0658665819017461,-0.038421574226534604
7.25280012,0.04950670622546314,-0.06502015409596623,-0.03804620501149065
7.257800153,0.04578307067717364,-0.06446980627062852,-0.03956312897431249
7.262800153,0.04248943046104156,-0.0642537822009028,-0.042679404799349833
7.267799486,0.03946891729479913,-0.06432148646112855,-0.046741053297694846
7.272799452,0.036569521621933665,-0.06453156598917621,-0.050838124992291636
7.277799452,0.033674950973767,-0.06466852814369843,-0.05395907561741345
7.282799452,0.030727874713695195,-0.06447363589532971,-0.05516840694783155
7.287799485,0.02774377793988721,-0.06368329567439572,-0.053776775443086976
7.292799485,0.02481476973336038,-0.062068183561643335,-0.04947306602565818
7.297799485,0.02210351916900109,-0.05946794211327433,-0.042393939103203195
7.302799485,0.019828099862919852,-0.0558177736644166,-0.03311751285538481
7.307799485,0.018239022204083407,-0.05116374901489659,-0.02258196157394448
7.312799485,0.01759025113961811,-0.04566373492185763,-0.011943610557247122
7.317799451,0.01810665117053559,-0.039571915197505234,-0.0023994245096461845
7.322799451,0.019951040274471667,-0.03320772818615702,0.004996278721332044
7.327799451,0.023194641838605857,-0.026914036765557547,0.009491749759270777
7.332799484,0.027794895939314907,-0.02101267413738119,0.010750491840912096
