Time (s),Acceleration x (m/s^2),Acceleration y (m/s^2),Acceleration z (m/s^2)
6.003047237,0.6266399641428244,0.06029481037879565,-0.9529230551931512
6.008047237,0.6968005600270442,0.17827251832237165,-0.8429397767638853
6.013047237,0.7651782829732032,0.2982871114365764,-0.7336022963066304
6.018047237,0.8307447128556857,0.42165356042524466,-0.6259877704095819
6.023047237,0.8924597135665435,0.5496639100847243,-0.5211274714163541
6.028047203,0.9492860976433508,0.6835620232663997,-0.4199921621175621
6.033047169,1.0002044332708637,0.8245187145996382,-0.3234783915480356
6.038047169,1.044227746239292,0.9736076412816441,-0.23239592728152608
6.043047169,1.0804158859709094,1.1317823162361835,-0.1474565261414005
6.048047202,1.1078893462137782,1.2998546017119492,-0.06926422950060329
6.053046535,1.125842355133572,1.478475028391302,0.0016926490951850355
6.058045868,1.1335550742462215,1.6681152657489462,0.06504769793780658
6.063045834,1.1304047694811075,1.869053043260103,0.1205606224478536
6.068045834,1.1158758394717543,2.081359789077583,0.16811941209943554
6.073045834,1.089568604781425,2.304891213505784,0.20774040595731622
6.078045867,1.0512067766564868,2.539281019711286,0.23956624635477272
6.083045867,1.0006435359897226,2.7839378742121608,0.263861757255106
6.0880452,0.9378661645561776,3.0380457154937197,0.28100783266697904
6.0930452,0.8629991829479172,3.300567421831077,0.29149346813410953
6.0980452,0.776305962925486,3.5702518006932817,0.29590611215429846
6.1030452,0.6781887945511048,3.8456438036408493,0.29492055220602575
6.108045166,0.5691873990566182,4.125097814070646,0.2892865798823372
6.113045166,0.4499758871385854,4.406793802225546,0.27981569964667885
6.118045166,0.32135817079704654,4.68875609413737,0.2673671547803592
6.123045199,0.184261846216443,4.968874459865869,0.2528335423448222
6.128045199,0.03973057571512542,5.244927192750228,0.2371262781073918
6.133045199,-0.11108499173948863,5.514605826803464,0.2211611549284376
6.138045165,-0.2669377091913677,5.77554112506058,0.2058442165003423
6.143045131,-0.42649576228594854,6.025329967947193,0.19205814435345486
6.148045131,-0.5883557564991946,6.261562776632331,0.18064933104009573
6.153045164,-0.7510569545616355,6.481851119980831,0.1724157874932494
6.158045197,-0.9130965343018712,6.6838551729293165,0.16809600857478496
6.163045197,-1.0729457131932252,6.865310716908444,0.16835889825704994
6.168045197,-1.2290665628979998,7.024055397776253,0.17379483490505349
6.173045197,-1.3799293160729156,7.1580539822841525,0.18490793779918777
6.178045197,-1.5240299490393905,7.265422378908834,0.20210957841187763
6.183045197,-1.6599078079832854,7.34445021135638,0.2257131640211193
6.188045163,-1.7861630339800556,7.393621751984028,0.2559302068616752
6.193045163,-1.901473534686734,7.4116350375382725,0.2928676790672194
6.198045163,-2.004611249315532,7.397419001558106,0.3365266422708298
6.203045863,-2.0944574591943503,7.350148467362484,0.3868021310497957
6.208046529,-2.1700169086282655,7.2692568534793525,0.44348426123330664
6.213046529,-2.2304305190874647,7.154446450529733,0.5062605270282626
6.218046495,-2.2749865030207497,7.005696136054489,0.5747192447097292
6.223046461,-2.303129710890987,6.823266402770026,0.6483540952974786
6.228046427,-2.3144690751982813,6.607701587422351,0.7265697143536523
6.233046427,-2.3087830468874464,6.3598292028324614,0.8086882738787261
6.238047127,-2.2860229511984427,6.0807562956905885,0.8939569991432651
6.24304716,-2.246314220470352,5.771862777517189,0.9815565618637129
6.248047193,-2.189955489622021,5.434791705884729,1.0706102900207999
6.253046526,-2.117415565238291,5.071436527158589,1.1601941333680463
6.258046526,-2.0293283011082788,4.6839253302218955,1.249347321596274
6.263046492,-1.926485432049036,4.274602202338918,1.3370836481688404
6.268046458,-1.8098274347660082,3.84600582278799,1.4224033057588832
6.273046458,-1.6804325004827112,3.400845476318377,1.5043051878950207
6.278046491,-1.5395037204115787,2.9419747158999434,1.5817995553174937
6.283046524,-1.3883546032448213,2.4723629516501022,1.653920944909151
6.288046524,-1.228393065043201,1.9950652893100753,1.7197411748933724
6.293046524,-1.061104057035379,1.5131909863138342,1.7783822739335122
6.29804649,-0.8880310259181275,1.029870935339994,1.829029136092137
6.303046456,-0.7107564334532213,0.5482246229584513,1.8709416811503723
6.308046422,-0.530881596141977,0.07132704292928407,1.9034662837365037
6.313046422,-0.3500061397369345,-0.3978239320365105,1.92604622811045
6.318046455,-0.1697073948767649,-0.8563392016886359,1.93823095038212
6.323046488,0.008479914029388991,-1.3014685914903874,1.9396838465659691
6.328046521,0.18308331804143382,-1.730628996652815,1.9301884509052916
6.333046521,0.3527112183865552,-2.1414300305485985,1.909652820573656
6.338046521,0.5160701039403414,-2.5316967304126905,1.8781119977450926
6.343046487,0.6719800327066245,-2.8994889264449912,1.8357284597258996
6.348046487,0.8193880753745231,-3.2431169461664293,1.7827905168967972
6.353046487,0.9573794676934276,-3.5611534025220264,1.7197086780290523
6.35804652,1.0851862768435596,-3.8524408996898396,1.6470100657850952
6.36304652,1.2021934516264043,-4.116095581781174,1.5653310184929554
6.36804652,1.3079421925848038,-4.351506542422519,1.4754080484602028
6.37304652,1.4021306418318376,-4.55833120291853,1.378067344612309
6.37804652,1.4846119504560817,-4.73648684942898,1.2742130185283747
6.38304652,1.5553898325468845,-4.886138593425326,1.1648143064106413
6.388046486,1.614611759333095,-5.007684084602299,1.050891955360347
6.393046452,1.6625599856684308,-5.101735361918999,0.9335040347535599
6.398046452,1.6996406348763295,-5.1690982761369835,0.8137314175965398
6.403047152,1.7263710966505712,-5.210749954528656,0.692663172852896
6.408047185,1.7433660157001905,-5.227814803422545,0.5713821022183275
6.413047185,1.7513221658969929,-5.221539555711274,0.45095064775561283
6.418047185,1.7510025161701648,-5.193267868404146,0.3323973911409331
6.423047151,1.7432198006681634,-5.144414960926301,0.21670435877530383
6.428047151,1.728819906585384,-5.076442759902753,0.1047953360238302
6.433047151,1.70866538774109,-4.990835982410545,-0.0024746245660526383
6.438047184,1.6836193996092392,-4.889079548732766,-0.10432834284180352
6.443047184,1.6545303316078084,-4.772637668939294,-0.20007417366891986
6.448047184,1.6222173854377842,-4.642934896544588,-0.28911210568297196
6.453047184,1.5874573153525897,-4.501339388492267,-0.3709382488750693
6.458047184,1.550972509365004,-4.349148555292067,-0.4451477029446912
6.463047184,1.5134205517495771,-4.187577229822488,-0.511435835450773
6.46804715,1.4753853687045073,-4.017748429623259,-0.5695980324460664
6.47304715,1.4373700220582997,-3.8406867368231064,-0.6195280135429692
6.47804715,1.3997911813201602,-3.6573142732939155,-0.6612148274949687
6.483047183,1.3629752728947913,-3.4684492068976134,-0.694738662832533
6.488047183,1.327156277647305,-3.2748066880372972,-0.720265620722843
6.493047183,1.2924751248236637,-3.0770020839418657,-0.7380416045371699
6.498047149,1.2589806118269244,-2.8755563506595787,-0.7483854836302309
6.503047149,1.2266317652786025,-2.67090335886793,-0.7516816885750097
6.508047149,1.195301548626689,-2.4633989685616524,-0.7483723920900496
6.513047182,1.1647818146743554,-2.2533316288139753,-0.7389494241973251
6.518047215,1.1347893971767848,-2.0409342616718917,-0.7239460617066127
6.523047215,1.104973233504779,-1.8263971736491165,-0.7039288211474651
6.528047215,1.0749224097529542,-1.609881724309853,-0.6794893713181636
6.533047215,1.0441750200024449,-1.3915344694351959,-0.6512366674202513
6.538047215,1.0122277320473965,-1.1715014867429703,-0.6197893939600286
6.543047215,0.978545951953383,-0.9499425856700804,-0.5857687886777972
6.548047181,0.9425744785645739,-0.7270450998878673,-0.5497919049492969
6.553047181,0.903748536069547,-0.5030369625568706,-0.5124653555496937
6.558047181,0.8615050680530176,-0.2781987704811158,-0.4743795666773637
6.563047214,0.815294170631468,-0.05287455508753864,-0.43610355824800995
6.568047214,0.7645905359687656,0.17251900366029516,-0.3981802553186877
6.573047214,0.7089047712441658,0.3974851591519534,-0.3611223264974402
6.57804718,0.647794452377526,0.6214416823395974,-0.3254085383709008
6.58304718,0.5808747668185749,0.8437176158771429,-0.2914806100837571
6.58804718,0.5078285958517874,1.0635523210052116,-0.25974054888613257
6.593047213,0.42841588463975033,1.2800968904616143,-0.23054844542795436
6.598047213,0.3424821481344364,1.492417947858479,-0.20422070660516076
6.603047213,0.24996596334959342,1.699503799459923,-0.1810287037472535
6.608047213,0.15090530331017918,1.900272849803085,-0.16119781491912952
6.613047213,0.04544257513592865,2.093584139756288,-0.14490684217076275
6.618047213,-0.06617176570562991,2.278249815935259,-0.1322877875917867
6.623047179,-0.1835771403319843,2.4530492953644445,-0.12342597559970342
6.628047179,-0.3063024094218347,2.61674485026656,-0.11836051244483903
6.633047179,-0.43376715203809624,2.768098306131224,-0.11708507693968712
6.638047212,-0.5652847123769442,2.9058885227523077,-0.11954903850744848
6.643047245,-0.7000670367035897,3.028929313449621,-0.1256588995045933
6.648047245,-0.8372312899877187,3.136087452539236,-0.13528005835399304
6.653047211,-0.9758082075086928,3.22630042502814,-0.1482388885762161
6.658047177,-1.1147521021971418,3.2985935845569125,-0.16432512668421353
6.663047143,-1.252952414392844,3.3520964045037505,-0.18329455931704197
6.668047109,-1.3892466572823947,3.3860575316538424,-0.20487199694680824
6.673047109,-1.5224345789810707,3.399858380892052,-0.22875451800283675
6.678047142,-1.6512933321060699,3.3930250420147208,-0.2546149634450833
6.683047175,-1.7745934151079257,3.365238304946284,-0.2821056578603367
6.688047208,-1.891115127589495,3.3163416464082625,-0.31086232911905876
6.693047208,-1.9996652649286957,3.24634705862983,-0.34050819447637964
6.698047208,-2.099093766381569,3.1554386383586457,-0.3706581767419514
6.703047174,-2.1883100263626867,3.0439738915808285,-0.40092321000962705
6.708047174,-2.266298581384183,2.9124827453411046,-0.4309145908512102
6.713047174,-2.3321338950409527,2.76166429232154,-0.4602483282291958
6.718047207,-2.3849939797600594,2.5923813259905693,-0.48854944378367304
6.723047207,-2.424172615993968,2.4056527538665997,-0.5154561733965971
6.728047207,-2.4490899564276227,2.2026440034714194,-0.5406240207690836
6.733047173,-2.4593013339001084,1.984655559605296,-0.5637296141923999
6.738047139,-2.454504126354798,1.7531097924143917,-0.5844743191518659
6.743047105,-2.434542569412349,1.5095362531840621,-0.6025875622574108
6.748047105,-2.399410446304283,1.2555556289254952,-0.6178298260881107
6.753047138,-2.349251625172157,0.9928625579923716,-0.6299952791275849
6.758047171,-2.284358454378552,0.7232075178362981,-0.6389140092233033
6.763047204,-2.205168066484064,0.4483780034480096,-0.6444538324972497
6.768047237,-2.1122566795050184,0.17017922198680394,-0.646521652436301
6.773047237,-2.0063320184185676,-0.10958546357229211,-0.6450643464483148
6.778047203,-1.8882240094006453,-0.3891341007986678,-0.6400691602101427
6.783047169,-1.7588739233230046,-0.6667254744346852,-0.6315635944870286
6.788047169,-1.6193221634881245,-0.940677934977464,-0.6196147754072653
6.793047169,-1.4706949058289496,-1.2093874636414408,-0.6043283076087602
6.798047202,-1.3141898087032013,-1.4713447033226816,-0.5858466198949419
6.803047202,-1.1510610150810308,-1.7251506837862358,-0.5643468243686345
6.808047202,-0.9826036732914989,-1.969530972128948,-0.5400381217140334
6.813047202,-0.8101382039428434,-2.2033479874537516,-0.5131587967549519
6.818047202,-0.6349945399835567,-2.4256112325124155,-0.48397285915981453
6.823047202,-0.45849656370885905,-2.6354852157999247,-0.4527663937262868
6.828047168,-0.2819469585771967,-2.832294866246428,-0.4198436924802192
6.833047168,-0.1066126850805441,-3.0155282801788323,-0.3855232462481948
6.838047168,0.06628872094396357,-3.18483668714016,-0.3501336759667727
6.843047201,0.23560184162791278,-3.3400315772805076,-0.3140096835526835
6.848047201,0.4002448895459232,-3.481078997175879,-0.2774880985777321
6.853047201,0.5592198811251511,-3.608091090703847,-0.24090409032517124
6.858047167,0.7116213281473682,-3.721315033613172,-0.20458760541110604
6.8630466,0.856643322144016,-3.8211195807174883,-0.16886007968904557
6.8680466,0.9935849080614285,-3.9079795091568394,-0.1340314603569377
6.873046633,1.1218536706125748,-3.9824582961804187,-0.10039756075798015
6.878046633,1.240967489628946,-4.045189412563885,-0.0682377571221062
6.883046633,1.3505544582809041,-4.096856641577235,-0.03781302453928461
6.888046633,1.4503509980332803,-4.138173848368634,-0.009364300051290573
6.893046633,1.5401982444801503,-4.169864627013589,0.016888845126623725
6.898046633,1.6200368172274586,-4.192642244262657,0.040749244279651056
6.903046599,1.6899001237320876,-4.207190282183318,0.062042903429101674
6.908046565,1.7499063805351633,-4.2141443580508655,0.08061951404964132
6.913046565,1.800249564618959,-4.214075270169033,0.09635272030581893
6.918046565,1.8411895314775306,-4.20747388351761,0.10914014600282042
6.923046598,1.8730415534404443,-4.194738029552005,0.11890318256112992
6.928046598,1.8961655400907642,-4.176161650196202,0.1255865370446309
6.933046598,1.9109552008278217,-4.151926367260401,0.12915753908028746
6.938046564,1.9178273974213376,-4.122095605950633,0.1296052078005868
6.943046564,1.9172119130348206,-4.086611346487224,0.1269390849075514
6.948046564,1.9095418362607524,-4.045293523504072,0.12118784747700967
6.953046597,1.895244727560569,-3.9978420414985187,0.11239772402549571
6.958046597,1.87473470458465,-3.943841328674201,0.10063074974015386
6.963046597,1.8484055550454848,-3.8827673133163345,0.08596291149933216
6.968046597,1.8166249627065099,-3.813996677925131,0.06848224902746188
6.973046597,1.7797299130271425,-3.73681822680965,0.04828699255318394
6.978046597,1.7380233269317718,-3.6504461908098094,0.025483827054610154
6.983046563,1.6917719495947936,-3.5540352848730326,0.00018637733418273608
6.988046563,1.6412054929571658,-3.446697326916695,-0.027485993256574307
6.993046563,1.586516996386284,-3.3275192175868993,-0.057408984518395774
6.998046596,1.5278643335129647,-3.195582069603858,-0.08945368835814403
7.003046596,1.465372760287465,-3.0499812626572957,-0.12348639083334789
7.008046596,1.3991383738123357,-2.8898471854427563,-0.15936781796242447
7.013047129,1.3292323349157333,-2.714366410174932,-0.19695182519399831
7.018047095,1.2557056990399826,-2.5228030267293295,-0.2360835622849692
7.023047061,1.1785946987666276,-2.314519844106507,-0.27659717840810705
7.028047061,1.097926326756825,-2.088999147398447,-0.31831316531112147
7.033047061,1.0137240799527987,-1.8458626802524796,-0.3610354675217309
7.038047094,0.9260137436255267,-1.5848905074186699,-0.40454851547268866
7.043047127,0.8348291146106784,-1.306038400901557,-0.44861435723583654
7.04804716,0.7402175828562368,-1.0094533882668402,-0.49297007484249966
7.053046493,0.6422455055440872,-0.6954871047489107,-0.5373256702152076
7.058045826,0.5410033167984425,-0.3647066041698387,-0.5813625928598665
7.063045792,0.436610318763362,-0.017902309585444018,-0.6247330572155427
7.068045792,0.3292190983624697,0.3439071751806108,-0.6670602637552385
7.073045792,0.219019510534195,0.7194736169181918,-0.7079395974852742
7.078045825,0.1062421650753568,1.107321222916193,-0.7469408338820208
7.083045425,-0.00883864841047837,1.5057523071362042,-0.7836113388231023
7.088044758,-0.1259026640404201,1.9128565477158155,-0.8174802082592297
7.093044058,-0.2445820373737238,2.3265237477003344,-0.8480632570575871
7.098044024,-0.36446049981674794,2.74445993101135,-0.8748687361650261
7.10304399,-0.4850733262792463,3.164206531788016,-0.897403634471189
7.10804399,-0.6059081638845636,3.583162369803959,-0.9151804076429907
7.113044023,-0.7264067578661147,3.9986080501840857,-0.9277239710795958
7.118044056,-0.8459675963840778,4.4077323846509495,-0.9345787973482127
7.123044089,-0.9639494796477829,4.807660405937274,-0.9353159686439069
7.128044089,-1.0796760016601221,5.195482537175134,-0.9295400502918852
7.133044089,-1.19244091592603,5.568284482409075,-0.9168956702802261
7.138044055,-1.3015143394043696,5.923177420087635,-0.8970737103349453
7.143044021,-1.406149731126396,6.2573281057198065,-0.8698170340438033
7.148044021,-1.5055915630279486,6.567988520645069,-0.834925695090226
7.153044054,-1.5990835814481268,6.852524739144633,-0.792261582621297
7.158044087,-1.6858775400378598,7.108444723846177,-0.7417524710801867
7.163044087,-1.7652422702190806,7.3334247970334365,-0.6833954492082783
7.168044087,-1.8364729450868056,7.525334570239905,-0.617259708254281
7.173044087,-1.8989003873132604,7.6822601439039895,-0.5434886734073368
7.178044087,-1.9519002710151583,7.802525411526569,-0.462301465548407
7.183044087,-1.9949020707548668,7.884711318654251,-0.3739936827139104
7.188044053,-2.027397616598735,7.927672936962786,-0.27893749191708395
7.193044053,-2.04894912161592,7.930554218996238,-0.177581021854605
7.198044053,-2.05919655727478,7.892800301233285,-0.07044704569836606
7.203044753,-2.057864263053514,7.814167223865166,0.04186905872760352
7.208045419,-2.0447666890742133,7.694728936914504,0.15870208597687055
7.213045419,-2.019813184125773,7.53488146597152,0.27932053348365204
7.218045385,-1.9830117553066144,7.335344118453732,0.4029309031804464
7.223045385,-1.9344717388830357,7.097157624069254,0.5286827925837924
7.228045385,-1.8744053340117066,6.821679121740465,0.6556747929951662
7.233045818,-1.8031279610709325,6.510573929729314,0.7829612093687653
7.238046118,-1.7210574141891948,6.165804065767355,0.909559609965841
7.243046784,-1.6287117833311162,5.7896135191221445,1.034459203390328
7.248046784,-1.5267061258357773,5.384510316194562,1.1566300255650037
7.253046784,-1.4157478721574603,4.953245464821189,1.275032899695638
7.258046784,-1.2966309577042203,4.498788909099745,1.3886301087636077
7.26304675,-1.1702286839891052,4.024302675132642,1.4963966933851216
7.268046716,-1.0374853292479682,3.5331114373067933,1.5973322589900605
7.273046716,-0.8994065520131342,3.028670783392377,1.6904731464760505
7.278046749,-0.7570486607101513,2.514533503948412,1.7749047914683707
7.283046782,-0.61150685686915,1.9943142767210433,1.8497740712874455
7.288046782,-0.46390259662562827,1.4716531595605733,1.9143014183676623
7.293046782,-0.31537025178838424,0.9501783454578278,1.967792466769051
7.298046748,-0.1670432849212221,0.43346866989760624,2.00964899605009
7.303046714,-0.020040180487730198,-0.07498360734044138,2.039378943449444
7.30804668,0.12454960481570683,-0.5718091981485034,2.0566052679868
7.31304668,0.2656793949797541,-1.0537967943398372,2.0610734645648012
7.318046713,0.40235846570734707,-1.5179261142930427,2.0526575398949207
7.323046746,0.5336643488403884,-1.96139841607614,2.0313642766774813
7.328046779,0.6587539961517076,-2.381663918902439,1.997335633544708
7.333046779,0.7768735514127091,-2.7764456027183564,1.9508491618246893
7.338046779,0.8873665151417961,-3.143758901197948,1.8923163676502541
7.343046745,0.9896801321662217,-3.4819268697938366,1.822279004020349
7.348046745,1.0833698841541517,-3.789590499593583,1.7414033330413268
7.353046745,1.1681020239457147,-4.065713958424117,1.6504724466376224
7.358046111,1.2436541434768849,-4.309584668541426,1.5503767728377742
7.363046111,1.3099138207466823,-4.520808268695906,1.442102926751355
7.368046111,1.3668754417632676,-4.699298649900532,1.3267210936807656
7.373046077,1.4146353382527859,-4.845263391304346,1.2053711581176236
7.378046043,1.453385418565446,-4.959185047817838,1.079247816486148
7.383046009,1.4834054958644645,-5.041798847812777,0.9495849317920937
7.388046375,1.5050545338338974,-5.0940674419862875,0.817639402745313
7.393046375,1.5187610365021438,-5.117153400117975,0.6846748273816337
7.398046408,1.5250128068401387,-5.112390180182138,0.5519452422237492
7.403046441,1.5243462904361913,-5.081252295329804,0.42067921378563694
7.408046474,1.5173357077230196,-5.025325380914388,0.29206455043998214
7.413046474,1.504582162685192,-4.946276818786592,0.16723388916027215
7.418046474,1.4867028991306155,-4.84582751290641,0.04725139270310601
7.42304644,1.4643208585678973,-4.72572533296451,-0.0668992322856084
