"Time (s)","Acceleration x (m/s^2)","Acceleration y (m/s^2)","Acceleration z (m/s^2)"
4.081062740E-1,-3.861847401E0,5.135861874E0,6.579565525E0
4.131062740E-1,-4.376600742E0,4.371812344E0,6.625055313E0
4.181062740E-1,-4.635174274E0,3.775655985E0,6.689698696E0
4.231057740E-1,-4.692635536E0,3.280056238E0,6.747159481E0
4.281054400E-1,-4.728548527E0,2.796427488E0,6.739976883E0
4.331051900E-1,-4.884171486E0,2.315192938E0,6.713640690E0
4.381049900E-1,-5.219658852E0,1.860294700E0,6.716034889E0
4.431048230E-1,-5.703287601E0,1.467645645E0,6.716034889E0
4.481046800E-1,-6.182127953E0,1.146822572E0,6.641814709E0
4.531045550E-1,-6.529287338E0,9.289502501E-1,6.467038155E0
4.581045550E-1,-6.689698696E0,7.661445141E-1,6.182127953E0
4.631045550E-1,-6.526893139E0,4.477157295E-1,5.787084579E0
4.681045550E-1,-6.007351398E0,2.130839527E-1,5.329792023E0
4.731044710E-1,-5.217264652E0,2.202665508E-1,4.800374508E0
4.781043940E-1,-4.383783340E0,2.825157940E-1,4.328716755E0
4.831043220E-1,-3.581725836E0,2.705447972E-1,3.957615376E0
4.881042550E-1,-2.913743496E0,1.340752989E-1,3.667917013E0
4.931041920E-1,-2.434903145E0,-1.580173075E-1,3.399766445E0
4.981041330E-1,-2.123656988E0,-6.129156351E-1,3.028665066E0
5.031041330E-1,-1.848323703E0,-1.242590666E0,2.645592928E0
5.081041330E-1,-1.601720929E0,-2.039859772E0,2.410961151E0
5.131041330E-1,-1.376665950E0,-2.889801502E0,2.310404539E0
5.181040850E-1,-1.206677675E0,-3.696647406E0,2.267308950E0
5.231040390E-1,-1.197100878E0,-4.400542736E0,2.264914751E0
5.281039950E-1,-1.395819545E0,-4.920383930E0,2.262520552E0
5.331039950E-1,-1.829170108E0,-5.272331238E0,2.236184359E0
5.381039950E-1,-2.501940727E0,-5.509357452E0,2.207453966E0
5.431039950E-1,-3.378218651E0,-5.674557209E0,2.200271368E0
5.481039570E-1,-4.419696331E0,-5.787084579E0,2.245761156E0
5.531039210E-1,-5.605125427E0,-5.834969044E0,2.363077164E0
5.581038860E-1,-6.859687328E0,-5.830180645E0,2.537853718E0
5.631038520E-1,-8.097489357E0,-5.796661377E0,2.753331900E0
5.681038180E-1,-9.301773071E0,-5.751171589E0,2.987963676E0
5.731038180E-1,-1.039831734E1,-5.710470200E0,3.246537447E0
5.781038180E-1,-1.139669895E1,-5.736806393E0,3.552995205E0
5.831038510E-1,-1.226340008E1,-5.856516838E0,3.921702385E0
5.881038840E-1,-1.292420006E1,-6.060023785E0,4.299986362E0
5.931039170E-1,-1.329051304E1,-6.304232121E0,4.651933670E0
5.981039170E-1,-1.329769516E1,-6.500556946E0,4.951508522E0
6.031039170E-1,-1.298405552E1,-6.577171326E0,5.195716858E0
6.081038830E-1,-1.250760937E1,-6.510133743E0,5.399224281E0
6.131038830E-1,-1.204552841E1,-6.311414719E0,5.564424038E0
6.181038830E-1,-1.170794582E1,-6.031293392E0,5.624279022E0
6.231039160E-1,-1.156429386E1,-5.676951408E0,5.619490623E0
6.281039160E-1,-1.165527344E1,-5.279513836E0,5.633855820E0
6.331039160E-1,-1.196173096E1,-4.862623692E0,5.712864399E0
6.381039160E-1,-1.242860031E1,-4.486733913E0,5.875670433E0
6.431039160E-1,-1.303672791E1,-4.177882195E0,6.151003361E0
6.481039160E-1,-1.379329491E1,-3.928884983E0,6.526893139E0
6.531038820E-1,-1.472972775E1,-3.641580820E0,6.981791496E0
6.581038820E-1,-1.563952446E1,-3.311181068E0,7.395988464E0
6.631038820E-1,-1.652537918E1,-2.913743496E0,7.779060364E0
6.681039150E-1,-1.724363899E1,-2.434903145E0,8.162133217E0
6.731039150E-1,-1.774163246E1,-1.951274395E0,8.528446198E0
6.781039150E-1,-1.797626495E1,-1.491587639E0,8.877999306E0
6.831038810E-1,-1.790683365E1,-1.094150186E0,9.253889084E0
6.881038470E-1,-1.754291534E1,-7.445967197E-1,9.675268173E0
6.931038130E-1,-1.697548866E1,-3.902548850E-1,1.007031155E1
6.981038130E-1,-1.634342003E1,1.675941236E-2,1.040310574E1
7.031038130E-1,-1.574726295E1,4.764461517E-1,1.062097836E1
7.081038460E-1,-1.523729801E1,9.576807022E-1,1.070956326E1
7.131038790E-1,-1.485422611E1,1.419761658E0,1.069759274E1
7.181039120E-1,-1.458098793E1,1.790862918E0,1.063534355E1
7.231039120E-1,-1.439423943E1,2.068590164E0,1.052281570E1
7.281039120E-1,-1.426255894E1,2.264914751E0,1.035761547E1
7.331038780E-1,-1.416439629E1,2.384624958E0,1.016368580E1
7.381038780E-1,-1.407341671E1,2.454056740E0,9.964966774E0
7.431038780E-1,-1.397764874E1,2.494758129E0,9.799766541E0
7.481039110E-1,-1.385554409E1,2.521094322E0,9.687239647E0
7.531039110E-1,-1.369513321E1,2.537853718E0,9.610625267E0
7.581039110E-1,-1.349641418E1,2.549824715E0,9.519645691E0
7.631038770E-1,-1.329769516E1,2.545036316E0,9.366415977E0
7.681038430E-1,-1.311573601E1,2.494758129E0,9.179668427E0
7.731038090E-1,-1.286195087E1,2.384624958E0,8.966584206E0
7.781038090E-1,-1.248845577E1,2.224213362E0,8.729558945E0
7.831038420E-1,-1.204313374E1,2.006340981E0,8.466196060E0
7.881038750E-1,-1.159062958E1,1.719036818E0,8.142979622E0
7.931039080E-1,-1.115488529E1,1.412579060E0,7.740753174E0
7.981039080E-1,-1.076223564E1,1.125274777E0,7.283460617E0
8.031039080E-1,-1.039113426E1,8.762778044E-1,6.795043468E0
8.081038740E-1,-9.998485565E0,6.224924326E-1,6.328174591E0
8.131038740E-1,-9.689633369E0,1.532289088E-1,6.297049522E0
8.181038740E-1,-9.490914345E0,-4.548983276E-1,6.802226067E0
8.231039070E-1,-9.397541046E0,-1.019929886E0,7.520486832E0
8.281039400E-1,-9.373599052E0,-1.357512355E0,8.054393768E0
8.331039400E-1,-9.335291862E0,-1.410184860E0,8.147768021E0
8.381039400E-1,-9.232340813E0,-1.228225470E0,7.759906769E0
8.431039400E-1,-9.086295128E0,-9.600749016E-1,7.123049259E0
8.481033060E-1,-8.957007408E0,-7.493851185E-1,6.593930721E0
8.531033060E-1,-8.897152901E0,-6.081272364E-1,6.261136532E0
8.581025720E-1,-8.897152901E0,-4.979939461E-1,6.045658588E0
8.631016720E-1,-8.906729698E0,-4.046200812E-1,5.825392246E0
8.681016720E-1,-8.945036888E0,-4.836287498E-1,5.562029839E0
8.731010380E-1,-8.978555679E0,-7.254431248E-1,5.047276497E0
8.781010380E-1,-8.882787704E0,-9.217676520E-1,4.429273129E0
8.831003710E-1,-8.652944565E0,-1.007958889E0,3.617638826E0
8.880996710E-1,-8.497321129E0,-1.118092179E0,2.892195702E0
8.930992370E-1,-8.360851288E0,-1.007958889E0,2.308010340E0
8.980992370E-1,-8.289025307E0,-8.738836050E-1,1.776497602E0
9.030992700E-1,-8.454225540E0,-1.022324085E0,9.074024558E-1
9.080992700E-1,-8.561964989E0,-1.113303781E0,7.589619160E-1
9.130992700E-1,-8.552388191E0,-1.496376038E0,5.171475410E-1
9.180992700E-1,-8.952219009E0,-1.065419793E0,-8.643068075E-1
9.230992700E-1,-9.081506729E0,-2.339135170E0,-1.989581585E0
9.280992700E-1,-9.258677483E0,-4.027047157E0,-2.729389906E0
9.330992360E-1,-9.414299965E0,-5.480627060E0,-3.277662039E0
9.380992360E-1,-9.579500198E0,-6.519710541E0,-3.773261786E0
9.430992360E-1,-9.668086052E0,-7.132626057E0,-4.326322556E0
9.480992690E-1,-9.581894875E0,-7.525275230E0,-4.769249916E0
9.530996020E-1,-9.313743591E0,-7.788637638E0,-5.042488098E0
9.580996020E-1,-8.882787704E0,-7.858069420E0,-5.171774864E0
9.630995680E-1,-8.473379135E0,-7.805397034E0,-5.131073475E0
9.680995340E-1,-8.099884033E0,-7.664138794E0,-4.973056316E0
9.730995000E-1,-7.486968040E0,-7.424718857E0,-4.551377296E0
9.780994660E-1,-6.897994518E0,-7.175721645E0,-3.967192173E0
9.830994660E-1,-6.462249756E0,-6.354510784E0,-2.415749550E0
9.880994990E-1,-6.524498940E0,-2.341529369E0,-2.020706177E0
9.930995320E-1,-7.089530468E0,-1.029506698E-1,2.633621916E-2
9.981001980E-1,-6.773495674E0,1.086967587E0,1.331176162E0
1.003100198E0,-6.567594528E0,1.333570361E0,2.645592928E0
1.008100898E0,-6.452672958E0,1.683123827E0,3.354276657E0
1.013101764E0,-6.318597794E0,1.877054095E0,3.579331636E0
1.018101764E0,-6.261136532E0,1.826775908E0,3.526659012E0
1.023102430E0,-6.313809395E0,1.230619669E0,3.167528868E0
1.028102463E0,-6.450278759E0,3.854664862E-1,2.774879694E0
1.033103129E0,-6.785466671E0,-8.403648138E-1,2.475604534E0
1.038103795E0,-7.211634636E0,-2.068590164E0,2.233790159E0
1.043104195E0,-7.814973831E0,-3.366247654E0,1.783680320E0
1.048103495E0,-8.631396294E0,-4.537012100E0,1.118092179E0
1.053103461E0,-9.589076996E0,-5.691316605E0,1.651999205E-1
1.058103461E0,-1.063055515E1,-6.720823288E0,-1.034295082E0
1.063103494E0,-1.167682076E1,-7.525275230E0,-2.255337954E0
1.068103527E0,-1.257704067E1,-8.178892136E0,-3.325546265E0
1.073102693E0,-1.243338871E1,-8.401553154E0,-3.287238836E0
1.078101859E0,-1.220593929E1,-8.538022995E0,-3.160346270E0
1.083100992E0,-1.202398014E1,-8.648156166E0,-3.057395458E0
1.088100058E0,-1.187793350E1,-8.734347343E0,-2.975992680E0
1.093100024E0,-1.116925049E1,-8.554781914E0,-2.521094322E0
1.098100024E0,-1.015650272E1,-8.202834129E0,-1.917755604E0
1.103099724E0,-9.047987938E0,-7.791031837E0,-1.252167463E0
1.108099757E0,-8.011298180E0,-7.446266651E0,-6.584054828E-1
1.113099757E0,-7.034463882E0,-7.163750648E0,-2.873041928E-1
1.118099757E0,-6.184522152E0,-6.943484306E0,-7.661445439E-2
1.123099757E0,-5.542876244E0,-6.840533733E0,-6.224924326E-2
1.128099757E0,-5.107131481E0,-6.814197540E0,-1.149216816E-1
1.133099757E0,-4.937143326E0,-6.948272705E0,-2.035071403E-1
1.138099723E0,-4.939537525E0,-7.209240437E0,-2.968810201E-1
1.143099723E0,-5.262754440E0,-7.671321392E0,-4.620809257E-1
1.148099323E0,-5.808632374E0,-8.181286812E0,-6.320692301E-1
1.153099356E0,-6.579565525E0,-8.664915085E0,-7.685387731E-1
1.158098456E0,-7.214028835E0,-9.036016464E0,-8.858546019E-1
1.163097789E0,-7.731176376E0,-9.014469147E0,-1.063025594E0
1.168097089E0,-8.063970566E0,-8.789413452E0,-1.228225470E0
1.173097089E0,-8.145373344E0,-8.339303970E0,-1.359906554E0
1.178096422E0,-8.040028572E0,-7.865252018E0,-1.438915253E0
1.183096455E0,-7.702445984E0,-7.372046471E0,-1.446097851E0
1.188096455E0,-7.333739281E0,-6.938695908E0,-1.462857246E0
1.193096455E0,-6.862081528E0,-6.524498940E0,-1.034295082E0
1.198097121E0,-6.438307762E0,-6.189310551E0,-4.453215301E-1
1.203097121E0,-6.026504993E0,-5.909189224E0,5.195417404E-1
1.208097121E0,-5.684134007E0,-5.705681801E0,1.450886250E0
1.213097087E0,-5.363311291E0,-5.576395035E0,2.169146776E0
1.218097053E0,-5.054459095E0,-5.456685066E0,2.626439333E0
1.223097019E0,-4.726154327E0,-5.339369297E0,2.748543501E0
1.228097885E0,-4.422090530E0,-5.188534260E0,2.700659513E0
1.233098785E0,-4.067748547E0,-4.946720123E0,2.468421936E0
1.238099685E0,-3.684676409E0,-4.680664539E0,2.152387381E0
1.243099685E0,-3.294421434E0,-4.436455727E0,1.798045516E0
1.248099651E0,-2.961627483E0,-4.173093796E0,1.450886250E0
1.253099617E0,-2.676717520E0,-3.890577793E0,1.130063176E0
1.258099583E0,-2.425326347E0,-3.617638826E0,8.619126081E-1
1.263099583E0,-2.176329374E0,-3.327940464E0,6.560112834E-1
1.268099616E0,-1.936909199E0,-3.045424461E0,5.099649429E-1
1.273099649E0,-1.680729628E0,-2.741360903E0,4.141969085E-1
1.278099682E0,-1.426944256E0,-2.463633537E0,3.519476354E-1
1.283099682E0,-1.165976286E0,-2.183511972E0,3.184288144E-1
1.288099682E0,-9.385270476E-1,-1.951274395E0,2.849099934E-1
1.293099648E0,-7.422025204E-1,-1.790862918E0,2.681505978E-1
1.298100048E0,-5.626373887E-1,-1.716642618E0,2.513911724E-1
1.303100048E0,-4.453215301E-1,-1.733402014E0,3.184288144E-1
1.308100981E0,-3.423708379E-1,-1.831564307E0,4.333505034E-1
1.313101647E0,-2.418143749E-1,-2.039859772E0,6.033388376E-1
1.318102313E0,-1.221042871E-1,-2.274491549E0,7.230489254E-1
1.323102279E0,4.788403399E-3,-2.638410330E0,7.972691655E-1
1.328102912E0,9.576806426E-2,-3.057395458E0,8.236053586E-1
1.333102878E0,1.149216816E-1,-3.524264812E0,7.829039693E-1
1.338102878E0,4.070143029E-2,-3.962403774E0,6.919242740E-1
1.343102878E0,-1.101332754E-1,-4.448426723E0,5.793967843E-1
1.348102911E0,-3.471592367E-1,-5.068824291E0,4.237737060E-1
1.353102944E0,-7.709329724E-1,-6.071994781E0,2.370259613E-1
1.358102977E0,-1.218648672E0,-7.400776863E0,3.830722719E-2
1.363102977E0,-1.750161409E0,-9.682451248E0,-9.097966552E-2
1.368102977E0,-2.197877169E0,-1.245972538E1,-3.351882398E-1
1.373103843E0,-2.442085743E0,-1.647988892E1,-4.764461517E-1
1.378103843E0,-2.559401512E0,-2.059312820E1,-6.751648784E-1
1.383103843E0,-2.650381327E0,-2.490777779E1,-8.978256583E-1
1.388103876E0,-2.659958124E0,-2.881990433E1,-1.108515382E0
1.393103876E0,-2.597708941E0,-3.213587189E1,-1.316810966E0
1.398103876E0,-2.523488522E0,-3.468120956E1,-1.561019540E0
1.403103876E0,-2.624045134E0,-3.569635010E1,-1.716642618E0
1.408103876E0,-2.885013103E0,-3.560058212E1,-1.757344007E0
1.413104842E0,-3.275267839E0,-3.416854858E1,-1.668758631E0
1.418104808E0,-3.608062029E0,-3.234656143E1,-1.534683347E0
1.423104808E0,-3.809175014E0,-2.989968872E1,-1.331176162E0
1.428104141E0,-3.892971992E0,-2.742168999E1,-1.110909581E0
1.433103507E0,-3.840299606E0,-2.464920425E1,-7.900865674E-1
1.438103507E0,-3.708618402E0,-2.181417084E1,-1.053448766E-1
1.443103507E0,-3.543418407E0,-1.893634033E1,1.177947283E0
1.448103473E0,-3.294421434E0,-1.618779564E1,2.628833532E0
1.453103439E0,-2.899378300E0,-1.365203762E1,3.835511208E0
1.458102772E0,-2.477998734E0,-1.147331429E1,4.683058739E0
1.463103005E0,-1.989581585E0,-9.550769806E0,4.977844715E0
1.468103038E0,-1.537077546E0,-7.934683800E0,5.054459095E0
1.473103038E0,-1.125274777E0,-6.476614952E0,4.906018734E0
1.478103038E0,-7.996633649E-1,-5.236418247E0,4.604049683E0
1.483103038E0,-4.860229492E-1,-4.309563160E0,4.182670593E0
1.488103038E0,-2.154781520E-1,-3.581725836E0,3.689464808E0
1.493103038E0,2.394201700E-3,-3.031059265E0,3.193865061E0
1.498103004E0,1.604115069E-1,-2.461239338E0,2.681505919E0
1.503103004E0,4.548983276E-2,-1.604115129E0,2.128445387E0
1.508103004E0,-1.436520964E-1,-9.265560508E-1,1.728613615E0
1.513103037E0,-3.567360640E-1,-6.153098345E-1,1.436521053E0
1.518103037E0,-6.464344859E-1,-3.782838583E-1,1.154005170E0
1.523103037E0,-1.022324085E0,-2.825157940E-1,9.002198577E-1
1.528103003E0,-1.386242747E0,-4.094084799E-1,6.440402865E-1
1.533103003E0,-1.716642618E0,-8.379706144E-1,3.303998411E-1
1.538103003E0,-2.056619167E0,-1.544260144E0,-1.197100803E-2
1.543103036E0,-2.434903145E0,-2.518700123E0,-2.992752194E-1
1.548103036E0,-2.858676910E0,-3.672705412E0,-5.123591423E-1
1.553103036E0,-3.423708439E0,-5.080795288E0,-6.560112834E-1
1.558103036E0,-4.005499363E0,-6.479009151E0,-7.493851185E-1
1.563102069E0,-4.661510944E0,-8.035240173E0,-7.972691655E-1
1.568102069E0,-5.274725437E0,-9.648932457E0,-7.134721279E-1
1.573102035E0,-5.870882034E0,-1.158105278E1,-5.817909837E-1
1.578102668E0,-6.440701962E0,-1.335036755E1,-5.171475410E-1
1.583103334E0,-6.988974094E0,-1.454986286E1,-5.003881454E-1
1.588103367E0,-7.427113056E0,-1.538094997E1,-5.506663918E-1
1.593103400E0,-7.750329971E0,-1.556769753E1,-6.153098345E-1
1.598103400E0,-7.905953407E0,-1.539292145E1,-6.200982332E-1
1.603103400E0,-7.783848763E0,-1.483746624E1,-5.075707436E-1
1.608104033E0,-7.563582420E0,-1.420509815E1,-3.519476354E-1
1.613103799E0,-7.211634636E0,-1.348923206E1,-1.340752989E-1
1.618103765E0,-6.809409142E0,-1.281167221E1,7.900865376E-2
1.623103765E0,-6.383241177E0,-1.209341240E1,3.208230138E-1
1.628103798E0,-5.959467411E0,-1.140867043E1,5.410895944E-1
1.633103831E0,-5.535693645E0,-1.075984192E1,7.134721279E-1
1.638103864E0,-5.138256073E0,-1.013734913E1,8.140285611E-1
1.643103864E0,-4.728548527E0,-9.560346603E0,8.092401624E-1
1.648103864E0,-4.362235546E0,-9.059958458E0,7.326257229E-1
1.653103830E0,-4.031835556E0,-8.607454300E0,5.554547906E-1
1.658103830E0,-3.763684988E0,-8.210017204E0,3.758896589E-1
1.663103830E0,-3.545812607E0,-7.848492622E0,2.274491638E-1
1.668103863E0,-3.366247654E0,-7.568370819E0,9.097966552E-2
1.673103863E0,-3.186682463E0,-7.364863873E0,-7.182604820E-2
1.678103863E0,-3.028665066E0,-7.247547626E0,-2.442085743E-1
1.683103829E0,-2.865859509E0,-7.266701221E0,-4.022258818E-1
1.688103795E0,-2.659958124E0,-7.412747860E0,-5.482721925E-1
1.693103761E0,-2.406172752E0,-7.680898190E0,-6.607996821E-1
1.698103761E0,-2.159569979E0,-7.956231594E0,-7.302315235E-1
1.703103761E0,-1.889025092E0,-8.248324394E0,-7.445967197E-1
1.708103794E0,-1.630451322E0,-8.523657799E0,-7.206547260E-1
1.713103160E0,-1.364694953E0,-8.830115318E0,-5.722141862E-1
1.718102526E0,-1.130063176E0,-9.143755913E0,-3.591302633E-1
1.723102526E0,-9.289502501E-1,-9.471760750E0,-2.633621916E-2
1.728102526E0,-8.283938169E-1,-9.737517357E0,3.974374831E-1
1.733102492E0,-9.648633003E-1,-9.785401344E0,8.595184088E-1
1.738102458E0,-1.189918280E0,-9.687239647E0,1.261744261E0
1.743102424E0,-1.558625340E0,-9.500492096E0,1.584961534E0
1.748101757E0,-1.968033791E0,-9.299378395E0,1.841141105E0
1.753101123E0,-2.434903145E0,-9.112630844E0,1.975216389E0
1.758100489E0,-2.863465309E0,-8.980949402E0,2.013523579E0
1.763099855E0,-3.277662039E0,-8.933065414E0,1.903390408E0
1.768099855E0,-3.634398222E0,-8.949825287E0,1.716642618E0
1.773099855E0,-3.926490784E0,-9.014469147E0,1.470039845E0
1.778099821E0,-4.134786129E0,-9.141361237E0,1.180341482E0
1.783099821E0,-4.309563160E0,-9.318531990E0,8.643068075E-1
1.788099821E0,-4.460397720E0,-9.488520622E0,5.770025849E-1
1.793099854E0,-4.577713490E0,-9.653720856E0,3.136404157E-1
1.798099854E0,-4.668693542E0,-9.792584419E0,9.097966552E-2
1.803099854E0,-4.695029736E0,-9.921871185E0,-9.576806426E-2
1.808099820E0,-4.654327869E0,-1.002003384E1,-2.442085743E-1
1.813099786E0,-4.513070107E0,-1.002003384E1,-3.447650373E-1
1.818099752E0,-4.302380562E0,-9.933841705E0,-4.022258818E-1
1.823099752E0,-4.029441357E0,-9.802161217E0,-4.189853072E-1
1.828099752E0,-3.725377798E0,-9.646537781E0,-4.141969085E-1
1.833099785E0,-3.375824451E0,-9.495702744E0,-3.806780577E-1
1.838099818E0,-3.045424461E0,-9.373599052E0,-3.303998411E-1
1.843099851E0,-2.719813108E0,-9.285013199E0,-2.394201756E-1
1.848099851E0,-2.425326347E0,-9.239523888E0,-1.364694983E-1
1.853099184E0,-2.152387381E0,-9.261071205E0,0.000000000E0
1.858098250E0,-1.922544003E0,-9.318531990E0,1.436520964E-1
1.863098916E0,-1.750161409E0,-9.421483040E0,3.016694188E-1
1.868098916E0,-1.632845521E0,-9.565135002E0,4.381389022E-1
1.873098949E0,-1.570596337E0,-9.735123634E0,5.602431893E-1
1.878098282E0,-1.539471745E0,-9.890746117E0,6.991068721E-1
1.883098282E0,-1.544260144E0,-9.945813179E0,8.667010069E-1
1.888098448E0,-1.563413739E0,-9.941024780E0,1.065419793E0
1.893098981E0,-1.659181833E0,-9.811738014E0,1.364694953E0
1.898098747E0,-1.798045516E0,-9.627384186E0,1.709460020E0
1.903098713E0,-2.032677174E0,-9.438241959E0,2.135627985E0
1.908099379E0,-2.303221941E0,-9.234735489E0,2.571372509E0
1.913100045E0,-2.580949545E0,-9.067141533E0,3.014299870E0
1.918100078E0,-2.861071110E0,-8.983344078E0,3.394978046E0
1.923100078E0,-3.184288263E0,-8.925883293E0,3.715801001E0
1.928100078E0,-3.552995205E0,-8.868422508E0,3.890577793E0
1.933100044E0,-3.904942989E0,-8.875604630E0,3.845088005E0
1.938100044E0,-4.264073372E0,-8.861239433E0,3.663128614E0
1.943100044E0,-4.659116745E0,-8.918700218E0,3.270479441E0
1.948100077E0,-5.016151905E0,-9.014469147E0,2.841917515E0
1.953100110E0,-5.257966042E0,-9.194033623E0,2.379836559E0
1.958100110E0,-5.423166275E0,-9.354445457E0,1.936909199E0
1.963100110E0,-5.490203857E0,-9.526827812E0,1.537077546E0
1.968100110E0,-5.454290867E0,-9.696816444E0,1.175553083E0
1.973100110E0,-5.277119637E0,-9.850045204E0,8.619126081E-1
1.978100110E0,-5.044882298E0,-9.938630104E0,6.057330370E-1
1.983100076E0,-4.730942726E0,-9.962572098E0,4.094084799E-1
1.988100076E0,-4.426878929E0,-9.955389977E0,2.513911724E-1
1.993100076E0,-4.115632534E0,-9.933841705E0,1.173158810E-1
1.998100109E0,-3.837905407E0,-9.914688110E0,-2.394201700E-3
2.003100775E0,-3.569754839E0,-9.888352394E0,-9.576806426E-2
2.008101675E0,-3.303998232E0,-9.883563995E0,-1.628057212E-1
2.013101641E0,-3.038241863E0,-9.907505989E0,-2.082955539E-1
2.018102307E0,-2.760514498E0,-9.974543571E0,-2.537853718E-1
2.023102307E0,-2.588132143E0,-9.730335236E0,-2.825157940E-1
2.028103007E0,-2.456450939E0,-9.419088364E0,-3.064578176E-1
2.033103007E0,-2.305616140E0,-9.007286072E0,-3.375824392E-1
2.038102840E0,-2.154781580E0,-8.590695381E0,-3.639186621E-1
2.043102306E0,-1.932120800E0,-8.171710014E0,-3.758896589E-1
2.048102572E0,-1.690306425E0,-7.819762230E0,-3.734954596E-1
2.053103238E0,-1.398213744E0,-7.589918613E0,-3.208230138E-1
2.058103204E0,-1.130063176E0,-7.530063629E0,-2.633621991E-1
2.063103204E0,-9.145850539E-1,-7.649773598E0,-2.298433632E-1
2.068103204E0,-6.991068721E-1,-7.917924404E0,-2.011129409E-1
2.073103304E0,-5.386953950E-1,-8.291419983E0,-1.604115069E-1
2.078103337E0,-4.165911078E-1,-8.612242699E0,-9.816227108E-2
2.083103337E0,-3.112462163E-1,-8.954613686E0,-4.309562966E-2
