Time (s),Acceleration x (m/s^2),Acceleration y (m/s^2),Acceleration z (m/s^2)
6.001150726,0.5962708393174642,2.4398934440095124,0.31275850632554963
6.006150726,1.1665467386838495,4.382147898488633,0.7730573039874286
6.011151392,1.7175607075652206,6.205011188259879,1.2482586395657138
6.016152025,2.238018402550466,7.8435739048610404,1.7382766667190745
6.021152925,2.716588295543259,9.23709786762178,2.241759327882878
6.026153591,3.14206789554688,10.330937334492369,2.755781258475014
6.031154291,3.503587538828134,11.078334277367878,3.275633265040687
6.036154291,3.790851590383538,11.442030819316992,3.794727897814243
6.041154957,3.994413723388377,11.395643758340798,4.304633071002897
6.046155823,4.105979661981246,10.924749694266993,4.7952371599592
6.051156623,4.118727572632124,10.027634775846831,5.255040152597696
6.056157523,4.027633346498801,8.715670561402415,5.6715569784940065
6.061158223,3.8297854979289694,7.013286931696889,6.031811817108207
6.066159123,3.524672485319923,4.9575243389624655,6.322896593901431
6.071158456,3.114424124567509,2.597160790877375,6.532563335795824
6.076159122,2.603988600123102,-0.008576360916897549,6.649818590280438
6.081159788,2.001227549467233,-2.7916878678967247,6.6654884947905355
6.086160454,1.31691391257039,-5.677426697202437,6.572724990701823
6.091159254,0.5646207224122662,-8.58660959982818,6.367426794923137
6.09615922,-0.23950630963917283,-11.438141144521724,6.048552827022566
6.10115922,-1.0770938651215627,-14.151661365992108,5.6183106803665686
6.10615922,-1.9279987627046702,-16.65021738728939,5.082208323918689
6.111160153,-2.7708665871437317,-18.862852795394478,4.448963437923458
6.116159919,-3.5837726882600367,-20.727007158055383,3.730271469739996
6.121159919,-4.344920881663562,-22.19062255741247,2.9404403791515707
6.126159885,-5.033370118603786,-23.21386464207515,2.0959067468898054
6.131159851,-5.629755920746455,-23.770382181599174,1.214654015458829
6.136159817,-6.11697193250192,-23.848050563819413,0.31555872323590395
6.141159817,-6.480777823657359,-23.44916966975357,-0.5823056099812834
6.14615985,-6.710303055067193,-22.590113272263203,-1.460374955771748
6.151159883,-6.798421505857347,-21.300453596751865,-2.30127882196578
6.156159916,-6.7419791964757305,-19.621609179047088,-3.0894698242997145
6.161159916,-6.541865687937761,-17.60508522653567,-3.811768967502623
6.166159916,-6.202928478690074,-15.310392308267698,-4.457800437357712
6.171159882,-5.733738167720463,-12.802740731805498,-5.0202945725841035
6.176159882,-5.146219716579162,-10.150614126635137,-5.495243613724532
6.181159882,-4.455171378592203,-7.423326583705059,-5.881901586965562
6.186159915,-3.677697486277469,-4.688663517380097,-6.182627005394429
6.191159915,-2.832584164567665,-2.0106977720447756,-6.402574650008693
6.196159915,-1.9396481585929326,0.5521398784699368,-6.549250183679252
6.201159881,-1.019088415311774,2.948671941125458,-6.6319483867068865
6.206159847,-0.0908679964747118,5.1362204327374,-6.661102014465129
6.211159813,0.8258494541604999,7.081459663803577,-6.64757332155298
6.216159813,1.7131888458386757,8.760865454374969,-6.601923879879308
6.221160479,2.5549636408656475,10.16076827830082,-6.533700222130318
6.226160512,3.3369775064856846,11.277033991301685,-6.450772937120697
6.231160545,4.047224039110374,12.114409881326635,-6.3587650903561235
6.236160578,4.6759864283027035,12.685585307496742,-6.260602291509727
6.241160578,5.2158439124346705,13.010024834822099,-6.156211516484558
6.246160578,5.661596157196795,13.112637345315395,-6.042389133314956
6.251160544,6.010120063145457,13.02234708103119,-5.912850770032822
6.256160544,6.260175835335579,12.77063206125684,-5.75846704970721
6.261160277,6.412180347905956,12.39009205072835,-5.567680193619758
6.266160543,6.467965899954314,11.913102576922737,-5.3270874663733885
6.271160543,6.430541442147212,11.37060381605496,-5.022168811695247
6.276160543,6.303871366620022,10.79106395374897,-4.638128187773883
6.281160543,6.092684150361978,10.199646371111479,-4.1608114059827495
6.286160543,5.802319716980327,9.617599211735326,-3.577658021247194
6.291160543,5.438620556817988,9.061875037635902,-2.878641294416728
6.296160509,5.007867661676207,8.544977837584192,-2.057148680963451
6.301160509,4.516758429605467,8.075025019294507,-1.1107558700255664
6.306160509,3.972420106162614,7.656003549179694,-0.04185019799862699
6.311160542,3.382449257597617,7.28819238150495,1.1419357078660932
6.316160542,2.754965395865345,6.968717945010837,2.4275120391288048
6.321160542,2.0986653375916875,6.6922058492235905,3.7963645650526145
6.326160508,1.4228642814753887,6.451490173763092,5.224844228151658
6.331160474,0.7375099873084694,6.238341673878223,6.684713834261014
6.336160474,0.053157838878432284,6.044177863912156,8.143939428259456
6.341160507,-0.6191030795051018,5.860721053538503,9.567701091732163
6.34616054,-1.2677795751423955,5.680574785760265,10.919585447499493
6.35116054,-1.881162422121111,5.497694505259355,12.162910719514278
6.35616054,-2.44757139390012,5.307734400344178,13.262125388317399
6.36116054,-2.955651166299274,5.108258937695857,14.184213923777031
6.36616054,-3.3947075218751355,4.898814373693076,14.900038470710227
6.37116054,-3.7550692492813313,4.6808622076114705,15.38554458689694
6.376160506,-4.028457950051454,4.4575828702329465,15.622763141115788
6.381160506,-4.208346016300825,4.233563656706656,15.600549886247897
6.386160506,-4.2902825667541125,4.014389788175291,15.315018848889665
6.391160539,-4.272168171297535,3.8061613592753982,14.769644408920762
6.396160539,-4.154461586772683,3.6149617197985875,13.975027936057366
6.401160539,-3.9403051120924504,3.4463045493004874,12.948345945550171
6.406160505,-3.6355591145835384,3.3045875579635338,11.712515966147548
6.411160738,-3.248740411525881,3.192580436889777,10.295132269237373
6.416160704,-2.7908632723429556,3.110973430850892,8.727235467280803
6.421160704,-2.2751857062798306,3.0580107622388972,7.041987368522664
6.426160737,-1.716867343826143,3.029230154609918,5.273325301042112
6.43116077,-1.1325485602855867,3.017325961878459,3.454668567857405
6.436160803,-0.539863490862846,3.0121489929379095,1.6177441406621422
6.441160803,0.04309778700397594,3.0008511307573302,-0.20841033178880108
6.446160803,0.5983604194458012,2.968177391877312,-1.9982199980917916
6.451160769,1.1086500679586333,2.8969022849081183,-3.7300905604492
6.456160735,1.5579719074201228,2.7684013517981327,-5.386653477072917
6.461160735,1.9321623391392952,2.563342778561115,-6.9547377137111415
6.466160768,2.219392578543663,2.262478127176283,-8.425082867978105
6.471160801,2.4106042306874085,1.8475057713970988,-9.791823227979464
6.476160801,2.4998587595064827,1.301975736549221,-11.051785367513522
6.481160801,2.484585366555672,0.6122005778963903,-12.203652572565996
6.486160767,2.3657151451803813,-0.23186607886997873,-13.247057155592525
6.491160733,2.147693347522303,-1.235823426106581,-14.181666052324816
6.496160699,1.8383660434165776,-2.4001300607237868,-15.006325654225472
6.501160699,1.448742187456224,-3.7195619582639767,-15.718328454894891
6.506160732,0.9926369539912487,-5.182857017322619,-16.312856889622882
6.511160765,0.4862069558829569,-6.772575841514991,-16.782649113398296
6.516160798,-0.05260755806531538,-8.465200936083585,-17.117918024635316
6.521160798,-0.6047144095533474,-10.231487190986103,-17.306539391660614
6.526160798,-1.1505525838714454,-12.037065685556938,-17.33450834699216
6.531160764,-1.6708015656638953,-13.843290897878923,-17.186646669150726
6.536160764,-2.1470900511808377,-15.608308908141986,-16.847527049053596
6.541160764,-2.562676459040603,-17.288311891765492,-16.302565792154613
6.546160797,-2.9030740296761444,-18.838932972087438,-15.539222967791375
6.551160797,-3.1565947760986655,-20.21672622895673,-14.548239671804529
6.556160797,-3.314789105735452,-21.380670111339327,-13.324836517606009
6.561160797,-3.37276151996879,-22.293629233064657,-11.869796245204748
6.566160797,-3.329347329861098,-22.923709817012654,-10.190356705431668
6.571160797,-3.1871406850450636,-23.245447883116846,-8.300848385093813
6.576160763,-2.952370237996989,-23.240776383314394,-6.223022721833956
6.581160729,-2.6346252534457855,-22.89972740520481,-3.9860330946610407
6.586160729,-2.2464416791512067,-22.220837682270552,-1.6260487629052405
6.591160762,-1.8027643481025881,-21.211239247339304,0.8144977748995456
6.596160795,-1.3203077936712735,-19.886431378291373,3.2880085533966787
6.601160795,-0.8168438238470065,-18.269744241501105,5.743120925544829
6.606160795,-0.31044867786321756,-16.391518118512625,8.126350019610948
6.611160761,0.1812541576682208,-14.28803416206534,10.383895100031443
6.616160761,0.6418181374155955,-12.000242724449919,12.463520180211368
6.621160761,1.0566288389001177,-9.572343025904482,14.316413813291952
6.626160794,1.413458314975512,-7.050273058781975,15.898935298089574
6.631160794,1.7028935523059832,-4.480171132722461,17.17416440668033
6.636160794,1.9186224533814586,-1.9068705027624995,18.113187474008665
6.641160794,2.0575699030963484,0.6275136760745723,18.696071717949483
6.646160794,2.1198853286885035,3.0848500072249747,18.912499373434773
6.651160794,2.108791027843341,5.432060018674459,18.762051593650234
6.65616076,2.0303070148690434,7.641949295675139,18.25414786131012
6.66116076,1.8928730197219124,9.69376808626391,17.40765935423934
6.66616076,1.706891509561711,11.573479298258952,16.250224360476558
6.671160793,1.484217222043123,13.273723432082212,14.817300870624342
6.676160793,1.2376188095363736,14.793482585434866,13.150996561287656
6.681160793,0.9802369627373828,16.137458825892928,11.298720216178348
6.686160759,0.7250610426296524,17.315195389358518,9.311701656553856
6.691160725,0.48444308967431193,18.339981628039542,7.243429502316155
6.696160691,0.2696644141891681,19.22759365883081,5.14805725755482
6.701160691,0.0905661032416015,19.994931567230573,3.0788279399065392
6.706160691,-0.04474903827466598,20.658620252487502,1.0865655488317658
6.711160724,-0.13013916359394345,21.233644171321362,-0.7817218755441018
6.716160757,-0.16156990499227375,21.73208613234123,-2.4840878098600006
6.72116079,-0.13718665730907484,22.16203685242313,-3.984707711181174
6.72616079,-0.057316692333227455,22.52673530277907,-5.254727569942722
6.73116079,0.07559323098043012,22.823990184537458,-6.272881133453179
6.736160756,0.2570970346575545,23.04592055619065,-7.025864007933088
6.741160756,0.480919970148528,23.17903918645924,-7.508460463287132
6.746160756,0.7391722919240891,23.204686229674266,-7.723426172220933
6.751160789,1.0225986645201626,23.099804003446707,-7.681137153351161
6.756160789,1.3208563880183257,22.838026733773834,-7.399021727090053
6.761160789,1.6228160078952787,22.391042892355085,-6.900798226120181
6.766160755,1.9168783593178826,21.73017295325513,-6.215546435646312
6.771160721,2.191302496926124,20.828092773651544,-5.376645184391266
6.776160687,2.4345392118710376,19.660623018099244,-4.420612072351427
6.781160687,2.6355648933943994,18.208498654069192,-3.385883887893816
6.78616072,2.784210330273747,16.459029968461383,-2.3115776720699674
6.791160753,2.871478667900149,14.40756805074501,-1.236272435288998
6.796160786,2.8898461625033236,12.058693346193945,-0.1968500591678554
6.801160786,2.833538653524416,9.427055610336136,0.7725691076875888
6.806160786,2.698775884160253,6.537807114018051,1.6415648826863722
6.811160752,2.483975042452312,3.4265877892758483,2.384204574459194
6.816160752,2.1899043040026993,0.13904053120227378,2.979659713102286
6.821160085,1.8197768935963468,-3.27014368802817,3.4126394087033867
6.826160118,1.379276424300708,-6.73862874181761,3.6736339115053576
6.831160151,0.876505189515423,-10.19823955925205,3.7589678336965546
6.836160151,0.3218488135539077,-13.57710523661115,3.6706678044935397
6.841160151,-0.2722467038509898,-16.802053185376288,3.416154160377207
6.846160151,-0.8915859619644974,-19.80115242558939,3.0077708457256573
6.851160151,-1.5206191557014492,-22.506292839029847,2.462172219168888
6.856160151,-2.142912018717689,-24.85568173466975,1.799589946820021
6.861160117,-2.74167623289031,-26.796140214803298,1.0430073785963674
6.86615945,-3.300340587748623,-28.28508987058263,0.21727232792863935
6.87115855,-3.8031386885910514,-29.2921350318867,-0.6518184385652531
6.876157683,-4.235685864917309,-29.80016629293272,-1.5384287796360305
6.881156783,-4.5855166123114826,-29.805935906873923,-2.4175533072248694
6.886155883,-4.842554710050818,-29.320083057471116,-3.265816818467805
6.891155183,-4.999491128612445,-28.366614991231096,-4.062175432225128
6.896154983,-5.052049735350287,-26.981876659929405,-4.788496563466403
6.901156183,-4.999127164045996,-25.21306531211599,-5.430000383552395
6.906155549,-4.842800452648374,-23.11636619737105,-5.9755514198890065
6.911154649,-4.588203561726143,-20.754800412554378,-6.417795179974297
6.916153749,-4.243281095252266,-18.19588549161709,-6.753140902500886
6.921153749,-3.8184339743654707,-15.509213514028923,-6.981597522106589
6.926153749,-3.326077090217989,-12.764050462522713,-7.106475481914793
6.931154049,-2.7801328215169456,-10.027054718321438,-7.13397195032728
6.936153349,-2.19548659322272,-7.3602025489647485,-7.072661118712345
6.941153349,-1.5874313315589155,-4.818994968033833,-6.932914415939365
6.946153349,-0.9711268008413142,-2.451004271098884,-6.726277549390998
6.951152982,-0.3610975512699397,-0.2948007753984779,-6.464832196298471
6.956153015,0.2292101975865676,1.62071827684898,-6.160569910490671
6.961152615,0.7877966780698078,3.2765941620327967,-5.8248044249950235
6.966151915,1.3043904595365825,4.663680519227236,-5.467646121304381
6.971152548,1.7706379230623073,5.782155524593731,-5.09755914548497
6.976152181,2.1801991765949325,6.640715915389285,-4.7210176561959685
6.981152181,2.5287539797335508,7.255507207498415,-4.342273191921523
6.986152214,2.8139254294865625,7.64885219036003,-3.9632403611578706
6.991152214,3.0351326253142004,7.847844284248345,-3.583503200424397
6.996152214,3.1933861652056508,7.882873614439731,-3.200439788219977
7.001152214,3.291042065695486,7.786151849669426,-2.809458180891157
7.006152214,3.331530537081974,7.590297251563271,-2.404332548352158
7.011152214,3.31907600684387,7.327034376681331,-1.9776246238582318
7.016152847,3.2584239263582653,7.0260539337504575,-1.5211723402634754
7.021153747,3.1545883047702814,6.714067950073458,-1.026624913143836
7.026154647,3.0126317031009453,6.414084194799366,-0.4860017567834373
7.03115558,2.8374867276290443,6.14491229657567,0.10774842696755868
7.03615648,2.6338250339939764,5.92090271226314,0.7602122095233901
7.041157146,2.4059766476274476,5.751909144100445,1.4750227394652853
7.046157312,2.157899180418003,5.643455597298665,2.2534392971319304
7.051155412,1.8931934395077143,5.597081373902304,3.0940142271614803
7.056156045,1.6151591416115354,5.61083117692614,3.9923632709159116
7.061156945,1.3268821119517653,5.6798533172661,4.941051560079076
7.066157878,1.0313425824948594,5.7970668380913475,5.929603195530204
7.071157911,0.7315330983956911,5.953858161337903,6.9446375246935474
7.076157944,0.430574146307154,6.14076949299328,7.970130080230917
7.081157677,0.1318159470113266,6.348144496145508,8.987790816798912
7.086158343,-0.16108411705448517,6.56670138847753,9.977546968850517
7.091158309,-0.444117301747333,6.7880093322214705,10.918112759398324
7.096158275,-0.712919176178586,7.004850421628726,11.787623539744791
7.101158675,-0.9628091739775645,7.2114563947464925,12.564307963476436
7.106158675,-1.1888750814989957,7.403616077549265,13.227168729883966
7.111159108,-1.386100446119552,7.578656213081565,13.756640542137186
7.116159774,-1.5495298644487454,7.735304479062237,14.135193624333949
7.121159174,-1.6744643835180002,7.8734489431536545,14.347853078557687
7.12615884,-1.7566770853540612,7.993812781515859,14.382609215007637
7.131158806,-1.792637520284647,8.097566670791753,14.230701859435163
7.136158772,-1.77973303359062,8.18590376818064,13.886771645761046
7.141158772,-1.7164750718596111,8.25960356241015,13.348881869918584
7.146158805,-1.6026790938153455,8.31861109054341,12.618424091034106
7.151158838,-1.4396076198410053,8.361657093048056,11.69992829440246
7.156158871,-1.2300671692268865,8.385942680057962,10.60080356349386
7.161158871,-0.9784513329726131,8.38690909141611,9.331037683109065
7.166158871,-0.690724014133702,8.358109266971205,7.9028839848204075
7.171158837,-0.3743389418200249,8.291193351515359,6.330561299441005
7.176158837,-0.03809391968236539,8.176015124699695,4.629988485573009
7.181158837,0.30807912989918995,8.00086087868099,2.81856912964238
7.18615887,0.6533844821538183,7.752796685738382,0.9150351765702743
7.19115887,0.986486566939928,7.418124527494698,-1.0606490101575334
7.19615887,1.2958779881604403,6.9829326128718385,-3.0873278009719294
7.201159536,1.5702793209310026,6.433720592938891,-5.142652817004823
7.206159536,1.7990560040941963,5.758076458985658,-7.203056418471744
7.211159536,1.9726357251734616,4.945378819388884,-9.243721876429301
7.216159502,2.082908416358711,3.9874960823314796,-11.238574516246047
7.221159468,2.1235904886090444,2.8794528782109614,-13.160319075217826
7.226159468,2.0905353362028025,1.6200338678848114,-14.980547802330085
7.231159468,1.9819735038034476,0.21229592627164445,-16.66994142957637
7.236159501,1.7986682166834072,-1.3360384063235797,-18.198581072356653
7.241159501,1.5439751640600625,-3.0123303259637906,-19.536383428404893
7.246159501,1.2237993733503667,-4.798937064292013,-20.65366448731322
7.251159467,0.8464465499299592,-6.673301994469947,-21.52182861199179
7.256159467,0.42237117233305305,-8.60823134366068,-22.114170721543218
7.261159467,-0.03617131180195976,-10.572359376549292,-22.4067699162888
7.2661595,-0.5155559016352629,-12.530796367847987,-22.37944383575574
7.2711601,-1.0012862175909834,-14.445945801662655,-22.016724947722576
7.276160766,-1.4785386643530694,-16.278469357122855,-21.308813421088885
7.281160766,-1.9327288180493507,-17.988370745921763,-20.252456757128513
7.286160766,-2.3500744435055676,-19.53616277217046,-18.851704366009173
7.291160766,-2.7181290486347764,-20.884076502633985,-17.118486090034363
7.296160732,-3.026260778548264,-21.997267542027714,-15.072967473986903
7.301160732,-3.2660537083930294,-22.844972406942116,-12.743641394719035
7.306160732,-3.4316121027082667,-23.401568089418348,-10.167125342907827
7.311160765,-3.5197528011538077,-23.64749018685261,-7.3876458809860335
7.316160765,-3.5300763440308085,-23.569969408912343,-4.456206101827039
7.321160765,-3.4649135021903312,-23.163552687915203,-1.42944766139619
7.326160731,-3.3291502325929176,-22.430383240444456,1.6317645800177778
7.331160697,-3.1299404368657955,-21.3802233914063,4.663990916594376
7.336160663,-2.876321943453701,-20.030214352252557,7.603038391252929
7.341160663,-2.578756522979039,-18.404377985880277,10.385882484550178
7.346160663,-2.2486190454979376,-16.532876423570315,12.952605733043224
7.351160696,-1.8976635462448066,-14.451055742690787,15.248265190793887
7.356160729,-1.5374944761076363,-12.19830927309951,17.22460244877026
7.361160762,-1.1790696049441365,-9.816804010803608,18.841519023694588
7.366160762,-0.832257252122688,-7.35011972156035,20.0682553430804
7.371160762,-0.5054654506834598,-4.8418544101119805,20.884231051774666
7.376160728,-0.2053551155472079,-2.334251838863248,21.279525207251186
7.381160728,0.06335605621593395,0.13309330679573955,21.25499461458672
7.386160728,0.2979969619362369,2.5243991943637947,20.822045299217578
7.391160761,0.4979557103057082,4.808680450482226,20.002085027215553
7.396160761,0.6646065980451314,6.960508925121999,18.825693746554343
7.401160761,0.8011589864857226,8.960517506401839,17.331554317965235
7.406160727,0.9124373975191914,10.79562346784518,15.565188772036688
7.411160693,1.004603384281729,12.458960167488177,13.577546495757073
7.416160659,1.0848305236189772,13.949519501288554,11.423490930453799
7.421160659,1.1609443261954626,15.271521627529083,9.160230873306753
7.426160692,1.2410390649137393,16.433542289674932,6.845741284237227
7.431160725,1.3330835668620578,17.447440737272938,4.537216443142256
7.436160758,1.444527955386055,18.32714203653871,2.2895952929646044
7.441160758,1.5819231934932636,19.087335871883408,0.1541949164706838
