Time (s),Acceleration x (m/s^2),Acceleration y (m/s^2),Acceleration z (m/s^2)
10.00059166,-0.9595218897,-12.49053383,-9.559326172
10.00534588,-0.8638089895,-12.03829098,-9.272188187
10.0101001,-0.6460621357,-11.54776192,-8.819944382
10.01485427,-0.4474578202,-10.99023438,-8.291130066
10.01960849,-0.3565305769,-10.40877819,-7.759923935
10.02436271,-0.3996013701,-9.786644936,-7.221538544
10.02911692,-0.5575276613,-9.126225471,-6.654439926
10.03387114,-0.7824530005,-8.487341881,-6.125626087
10.03862536,-1.048056364,-7.903493404,-5.625525951
10.04337958,-1.308874011,-7.393822193,-5.197210789
10.0481338,-1.593619823,-7.008577347,-4.852644444
10.05288802,-1.914258122,-6.750152588,-4.563112736
10.05764224,-2.263610125,-6.671189308,-4.409972191
10.06239641,-2.586641312,-6.769295216,-4.374079704
10.06715062,-2.90967226,-7.037291527,-4.405186653
10.07190484,-3.108276606,-7.451249599,-4.407579422
10.07665906,-3.010170937,-7.72163868,-4.225724697
10.08141328,-3.194418192,-8.286344528,-4.118047714
10.0861675,-3.335594654,-8.705088615,-3.897907972
10.09092172,-3.168097258,-9.011369705,-3.754338741
10.09567594,-2.780459881,-9.229117393,-3.620340586
10.10043016,-2.340180635,-9.382257462,-3.639483213
10.10518432,-1.883151412,-9.528220177,-3.857230186
10.10993854,-1.387837172,-9.74835968,-4.228117466
10.11469276,-1.004985452,-9.980463028,-4.601397991
10.11944698,-0.7345965505,-10.25803089,-4.895715237
10.1242012,-0.2775674164,-10.54516983,-5.087141037
10.12895542,0.3349951804,-10.83709335,-5.18046093
10.13370963,1.112662554,-11.08833981,-5.268995285
10.13846385,1.990828395,-11.30369377,-5.352744102
10.14321807,2.895315409,-11.55494022,-5.625525951
10.14797229,3.694518089,-11.77029419,-6.044270039
10.15272646,4.383651257,-11.96172047,-6.616154671
10.15748068,4.785645485,-12.08854008,-7.178467751
10.16223489,4.941178799,-12.1292181,-7.683353424
10.16698911,4.764110088,-12.0598259,-8.070990562
10.17174333,4.103690624,-11.73918819,-8.374878883
10.17649755,3.37387991,-11.27737331,-8.449056625
10.18125177,2.861815929,-10.69352436,-8.444271088
10.18600599,1.483550072,-10.08335495,-8.063812256
10.19076021,0.9403793216,-9.358329773,-7.869993687
10.19551437,0.9140582681,-8.822337151,-7.506284714
10.20026859,1.131805062,-8.300702095,-6.963113785
10.20502281,1.050449133,-7.594819069,-6.671189308
10.20977703,0.9188438654,-7.149754047,-6.599404812
10.21453125,0.8709874153,-6.972685337,-6.623332977
10.21928547,1.045663476,-7.267002583,-6.862615108
10.22403969,0.3732803464,-6.872186661,-6.996613503
10.2287939,0.05503492057,-6.793223381,-7.389036179
10.23354812,-0.2201396823,-6.762116909,-7.869993687
10.23830234,-0.3445664644,-6.714260101,-8.274380684
10.24305656,-0.5718846321,-6.556334019,-8.511270523
10.24781073,-1.071984529,-6.355337143,-8.604590416
10.25256495,-1.619940877,-6.101697922,-8.673981667
10.25731916,-2.024327993,-5.893522263,-8.84387207
10.26207338,-2.254039049,-5.802595139,-9.209974289
10.2668276,-2.388036966,-5.850451469,-9.69093132
10.27158182,-2.20618248,-6.077769279,-10.04028416
10.27633604,-2.060220242,-6.47497797,-9.994820595
10.28109026,-1.768295884,-7.020541668,-9.597611427
10.28584448,-1.306481123,-7.700103283,-8.977870941
10.2905987,-0.4642075896,-8.46102047,-8.408378601
10.29535292,0.1459621787,-8.939585686,-7.939385414
10.30010708,0.5814558864,-9.427721024,-7.666603565
10.3048613,0.9738788009,-9.743574142,-6.963113785
10.30961552,1.43808639,-9.844072342,-6.185446739
10.31436974,1.684547186,-9.619147301,-5.271388054
10.31912396,1.741974831,-9.090332985,-5.469992638
10.32387818,1.840080619,-8.638090134,-5.699703693
10.32863239,1.969292998,-7.920242786,-5.998806477
10.33338661,2.39760828,-7.360322475,-5.7571311
10.33814083,1.698904037,-6.257231236,-5.69252491
10.34289505,1.725225091,-5.520241737,-5.697310925
10.34764922,1.801795483,-4.725824833,-5.589633465
10.35240344,1.878365755,-3.964907169,-5.601597786
10.35715766,2.306680918,-3.7256248,-5.742774487
10.36191187,1.586441398,-2.684746981,-6.190232277
10.36666609,1.653440475,-2.433500528,-6.93679285
10.37142031,1.607976794,-2.086541414,-7.11625433
10.37617453,1.272981644,-1.773081541,-6.92243576
10.38092875,1.40697968,-1.8855443,-6.185446739
10.38568297,0.5096712112,-1.588834286,-5.297709465
10.39043719,0.2871387303,-1.914258122,-4.735395908
10.3951914,-0.1674975902,-1.978864312,-4.175475597
10.39994562,-0.394815743,-2.266003132,-4.130012035
10.40469984,-0.94277215,-2.524427891,-4.127619267
10.40945401,-1.674975872,-2.440679073,-4.199403763
10.41420823,-1.586441398,-2.567498684,-4.508078098
10.41896245,-1.404586911,-2.624926329,-4.713860512
10.42371666,-1.014556766,-2.533999205,-4.584648132
10.42847088,-0.837487936,-2.143969059,-4.438685894
10.4332251,-0.1196411327,-1.969292998,-3.967299938
10.43797932,-0.1555334777,-1.749153376,-3.804588079
10.44273354,-0.2440679073,-1.35912323,-3.7710886
10.44748776,-0.2344966233,-0.8853443861,-3.763910055
10.45224198,-0.2033899277,-0.4211367965,-3.527020693
10.4569962,0.06939185411,0.07896314561,-3.000599623
10.46175036,0.2775674164,0.6101697683,-2.36650157
10.46650458,0.3206382394,1.091127157,-1.959721804
10.4712588,0.3756731451,1.409372568,-1.971685886
10.47601302,0.4833501875,1.514656782,-2.349751949
10.48076724,0.6819544435,1.495514154,-2.964707375
10.48552146,0.9690931439,1.339980721,-3.723232031
10.49027568,1.244267821,1.158126116,-4.431507587
10.49502989,1.617548108,0.8853443861,-4.651647091
10.49978411,1.942971945,0.6053841114,-4.548755646
10.50453833,2.148754835,0.2632105052,-4.323830605
10.50929255,2.201396942,-0.07896314561,-4.096512318
10.51404672,2.06261301,-0.4498506486,-3.960121393
10.51880094,1.859223247,-0.8638089895,-3.888336897
10.52355516,1.548156261,-1.256231904,-3.964907169
10.52830937,1.232303619,-1.505085468,-4.101297855
10.53306359,0.7920243144,-1.665404558,-4.407579422
10.53781781,0.2440679073,-1.875972986,-4.857429981
10.54257203,-0.1674975902,-2.043470621,-5.422136307
10.54732625,-0.3254238665,-2.203789711,-5.737988472
10.55208047,-0.2153540403,-2.392822742,-5.678168297
10.55683469,0.1004985496,-2.651247501,-5.546562672
10.5615889,0.3780659735,-2.912065268,-5.592026711
10.56634307,0.6388836503,-3.242274761,-5.702096462
10.57109729,0.9762716293,-3.577269793,-5.697310925
10.57585151,1.37587297,-3.926621914,-5.663811207
10.58060573,1.744367719,-4.28315258,-5.814558983
10.58535995,1.890329838,-4.692325115,-6.271588326
10.59011417,1.8855443,-5.096712112,-6.960721016
10.59486838,1.926222205,-5.472385406,-7.673782349
10.5996226,2.017149448,-5.766702652,-7.901100159
10.60437682,2.069791555,-6.017949104,-7.558926582
10.60913104,1.976471543,-6.228517532,-6.991827965
10.61388521,1.780260086,-6.434299946,-6.711867332
10.61863943,1.531406522,-6.637690067,-6.690331936
10.62339364,1.232303619,-6.87457943,-6.714260101
10.62814786,0.8805587292,-7.032505512,-6.687939167
10.63290208,0.5551348329,-7.207181931,-6.798008919
10.6376563,0.2871387303,-7.458428383,-6.867401123
10.64241052,-0.03589234129,-7.611568928,-6.735795975
10.64716474,-0.3565305769,-7.814958572,-6.556334019
10.6519189,-0.5479564071,-8.051848412,-6.400800705
10.65667312,-0.7513462901,-8.23370266,-6.405586243
10.66142734,-1.069591761,-8.295916557,-6.551548481
10.66618156,-1.335195065,-8.396414757,-6.82433033
10.67093578,-1.24666059,-8.621339798,-6.963113785
10.67569,-1.500299811,-8.532805443,-6.786045074
10.68044422,-1.402194023,-8.530412674,-6.352943897
10.68519844,-1.0863415,-8.537590981,-6.104090691
10.68995266,-0.6436693072,-8.463413239,-5.833701611
10.69470687,-0.5647061467,-8.305487633,-5.867201328
10.69946104,-0.3565305769,-8.190631866,-6.175875187
10.70421526,-0.1770688742,-8.044670105,-6.472585201
10.70896948,0.1890329868,-7.99202776,-6.491727829
10.7137237,0.2919243574,-7.846065521,-6.144768715
10.71847792,0.3493520916,-7.728816986,-5.680561066
10.72323213,0.1674975902,-7.599604607,-5.252245903
10.72798635,0.1890329868,-7.664210796,-5.015356064
10.73274057,-0.0,-7.633104324,-5.000999451
10.73749474,-0.1962114573,-7.690532207,-5.206781864
10.74224896,-0.6580262184,-7.604390144,-5.505885124
10.74700318,-0.7824530005,-7.812565804,-5.840879917
10.75175739,-1.13419795,-7.948956966,-6.092126369
10.75651161,-1.497906923,-8.166703224,-6.252445698
10.76126583,-1.890329838,-8.413164139,-6.142375946
10.76602005,-1.409372568,-9.102297783,-5.826523304
10.77077427,-1.232303619,-9.552147865,-5.424529076
10.77552849,-0.8494520187,-10.26281643,-5.295316696
10.78028266,-0.5096712112,-10.9615202,-5.33599472
10.78503687,-0.2488535494,-11.5142622,-5.649454117
10.78979109,-0.4211367965,-11.92104244,-6.185446739
10.79454531,-0.4259224236,-12.2919302,-6.778866768
10.79929953,-0.7106683254,-12.46899891,-7.49910593
10.80405375,-0.5048855543,-12.80877972,-8.123632431
10.80880797,-0.2608176768,-13.1078825,-8.618947029
10.81356219,0.2799602449,-13.64626789,-9.03051281
10.81831635,0.7513462901,-14.16551018,-9.291330338
10.82307057,0.8925228715,-14.62253952,-9.284152031
10.82782479,0.8542376757,-15.01974773,-9.298508644
10.83257901,0.5910272002,-15.25903034,-9.454042435
10.83733323,0.2871387303,-15.28295803,-9.511469841
10.84208745,0.3230310678,-15.80698681,-9.944570541
10.84684167,0.2560320199,-15.85484314,-9.963713646
10.85159588,0.1627119333,-15.65384579,-9.79860878
10.85635005,0.08853443712,-15.26860142,-9.635896683
10.86110427,0.1363908947,-14.71107388,-9.372686386
10.86585849,0.1914258152,-14.12722492,-9.054440498
10.87061271,0.3230310678,-13.50748348,-8.784051895
10.87536692,0.2273181528,-12.91884899,-8.575876236
10.88012114,-0.01196411345,-12.45942783,-8.456234932
10.88487536,-0.3158525825,-12.17707443,-8.475378036
10.88962958,-0.7369893789,-12.08854008,-8.556734085
10.8943838,-0.9810572863,-12.18425274,-8.669196129
10.89913797,-0.9403793216,-12.38046455,-8.69551754
10.90389219,-0.9906286001,-12.69870949,-9.047262192
10.9086464,-1.256231904,-12.84945774,-9.221938133
10.91340062,-1.562513232,-12.90209961,-9.245866776
10.91815484,-1.794616938,-12.8374939,-9.107083321
10.92290906,-1.974078655,-12.67717457,-8.903693199
10.92766328,-1.907079697,-12.39721394,-8.654839516
10.9324175,-1.730010748,-12.00479126,-8.137989998
10.93717167,-1.478764415,-11.49751282,-7.491927624
10.94192588,-1.35912323,-10.84427261,-6.74536705
10.9466801,-1.306481123,-10.15753174,-5.946164131
10.95143432,-1.361516118,-9.420542717,-5.257031441
10.95618854,-1.387837172,-8.752944946,-4.721039295
10.96094276,-1.450050473,-8.135597229,-4.187439442
10.96569698,-1.497906923,-7.618747234,-3.783052683
10.97045114,-1.536192179,-7.314858913,-3.570091486
10.97520536,-1.636690736,-7.099504948,-3.522234917
10.97995958,-1.813759565,-6.92243576,-3.50069952
10.9847138,-2.091326952,-6.991827965,-3.507878065
10.98946802,-2.347358942,-7.039684296,-3.696911097
10.99422224,-2.464607239,-7.128218651,-3.862015724
10.99897646,-2.598605394,-7.176074982,-3.998406649
11.00373068,-2.646461725,-7.300501823,-4.125226021
11.00848489,-2.586641312,-7.463213921,-4.259224415
11.01323906,-2.481357098,-7.611568928,-4.364508629
11.01799328,-2.328216314,-7.757531166,-4.417150497
11.0227475,-2.105684042,-7.999206066,-4.445864677
11.02750172,-1.840080619,-8.295916557,-4.476971149
11.03225594,-1.488335729,-8.621339798,-4.479363918
11.03701016,-1.098305583,-9.00179863,-4.551148891
11.04176437,-0.626919508,-9.44207859,-4.718646049
11.04651854,-0.09810572863,-9.863214493,-4.998606682
11.05127276,0.5024927258,-10.18146038,-5.285745144
11.05602698,1.179661512,-10.40877819,-5.568098068
11.0607812,1.926222205,-10.56909752,-5.814558983
11.06553542,2.529213428,-10.73659515,-5.917450428
11.07028963,3.065205812,-10.89930725,-5.850451469
11.07504385,3.440878868,-11.06201935,-5.620740414
11.07979807,3.689732552,-11.21515942,-5.419743061
11.08455224,3.704089403,-11.16730309,-5.383851051
11.08930646,3.73998189,-11.10987568,-5.544169903
11.09406068,3.421736479,-10.77248764,-6.022734642
11.09881489,3.093919754,-10.32024384,-6.692724705
11.10356911,3.081955671,-10.0331049,-7.472784996
11.10832333,2.057827473,-9.458827972,-7.99202776
11.11307755,1.737189293,-9.044869423,-8.635697365
11.11783177,1.797009826,-8.812766075,-9.083154678
11.12258599,2.287538528,-9.080761909,-9.458827972
11.12734016,1.832902193,-8.786444664,-9.650253296
11.13209437,1.840080619,-8.731410027,-9.930213928
11.13684859,1.727617979,-8.66680336,-9.980463028
11.14160281,1.483550072,-8.492127419,-9.6693964
11.14635703,1.091127157,-8.157132149,-9.219545364
11.15111125,0.6173482537,-7.872386456,-8.784051895
11.15586547,-0.3182454109,-7.353144169,-8.580661774
11.16061969,-1.136590719,-6.671189308,-8.784051895
11.16537385,-1.409372568,-6.254838467,-9.176474571
11.17012807,-1.452443361,-6.183053493,-9.456435204
11.17488229,-1.47158587,-6.269195557,-9.686145782
11.17963651,-1.639083505,-6.506084919,-9.872786522
11.18439073,-1.500299811,-6.838686943,-9.927821159
11.18914495,-1.354337573,-7.142575741,-9.652647018
11.19389917,-1.284945726,-7.403393269,-9.279366493
11.19865338,-0.9332008362,-7.716853142,-8.626125336
11.2034076,-0.6915257573,-7.944170952,-7.891529083
11.20816177,-0.2368894368,-8.257631302,-6.924828529
11.21291599,-0.2560320199,-8.169096947,-6.570691109
11.21767021,0.1483550072,-8.327022552,-6.235695839
11.22242442,0.6245267391,-8.219346046,-5.814558983
11.22717864,1.464407444,-8.066205025,-5.048855782
11.23193286,1.64626193,-7.587640762,-5.012963295
11.23668708,2.143969059,-7.283751965,-4.941178799
11.2414413,2.696711063,-6.750152588,-4.93878603
11.24619552,3.531806231,-6.345765591,-4.584648132
11.25094969,3.345165968,-5.716453075,-5.099104881
11.2557039,3.371487141,-5.467599869,-5.536991596
11.26045812,3.134597778,-5.079962254,-5.582455158
11.26521234,2.845066071,-4.778466702,-5.2737813
11.26996656,2.423929453,-4.453042984,-4.934000492
11.27472078,2.172683001,-4.17069006,-4.149154663
11.279475,1.24666059,-3.720839262,-4.515256405
11.28422922,1.143769264,-3.59641242,-4.823930264
11.28898344,0.7513462901,-3.247060299,-5.022534847
11.2937376,0.5670989752,-3.091526747,-5.316852093
11.29849182,0.2225325108,-2.790031195,-5.230710506
11.30324604,-0.2009970993,-2.514856577,-5.084748268
11.30800026,-0.4761717021,-2.459821701,-4.92442894
11.31275448,-0.866201818,-2.199003935,-4.811966419
11.3175087,-0.9236295223,-2.139183521,-4.728217602
11.32226292,-1.186840057,-1.940579176,-4.572684288
11.32701713,-1.349551916,-1.801795483,-4.508078098
11.33177135,-1.567298889,-1.691725612,-4.450650215
11.33652557,-1.816152334,-1.450050473,-4.314259052
11.34127979,-1.339980721,-1.627119422,-4.299902439
11.34603396,-0.9068797827,-1.464407444,-4.754538536
11.35078818,-1.241874933,-1.651047587,-3.955335855
11.35554239,-1.148554921,-1.560120344,-3.8668015
11.36029661,-0.760917604,-1.232303619,-4.065405846
11.36505083,-0.2895315289,-0.9547362328,-4.017549038
11.36980505,-0.05264209956,-0.5048855543,-3.64426899
11.37455927,0.3302095234,-0.2799602449,-3.407379389
11.37931349,0.342173636,0.09092725813,-3.247060299
11.38406766,0.1722832322,0.4426721931,-2.868994236
11.38882187,0.02153540403,0.6867401004,-2.514856577
11.39357609,0.01674975827,0.8015955687,-2.486142635
11.39833031,0.2344966233,0.8590233326,-2.744567633
11.40308453,0.5072783828,0.8398807645,-3.034099102
11.40783875,0.7513462901,0.7944171429,-3.048455954
11.41259297,1.067198873,0.6699903607,-2.940778971
11.41734719,1.373480201,0.4785645306,-2.610569477
11.42210141,1.478764415,0.2129612118,-2.421536446
11.42685562,1.249053478,-0.01674975827,-2.505285263
11.43160979,0.760917604,-0.1770688742,-2.864208698
11.43636401,0.2871387303,-0.3493520916,-3.393022537
11.44111823,0.05503492057,-0.5383850932,-3.754338741
11.44587245,0.08614161611,-0.7130611539,-3.912265062
11.45062667,0.1100698411,-1.004985452,-4.086941242
11.45538088,0.1483550072,-1.426122308,-4.366901398
11.4601351,0.2273181528,-1.875972986,-4.644468784
11.46488927,0.3038884699,-2.373680115,-5.015356064
11.46964349,0.4067798555,-2.842673302,-5.412564754
11.47439771,0.5766702294,-3.297309637,-5.804987907
11.47915192,0.866201818,-3.751945972,-6.049055576
11.48390614,1.21555388,-4.168296814,-6.192625046
11.48866036,1.579262972,-4.536791801,-6.379265308
11.49341458,1.775474429,-4.890929699,-6.683153629
11.4981688,1.993221283,-5.230710506,-7.089933395
11.50292302,2.213361025,-5.548955917,-7.362715244
11.50767719,2.404786825,-5.824130535,-7.216753006
11.51243141,2.522035122,-5.979663849,-6.908079147
11.51718562,2.414358139,-6.147161484,-6.819544315
11.52193984,2.139183521,-6.209374905,-7.037291527
11.52669406,1.734796405,-6.209374905,-7.262216568
11.53144828,1.35912323,-6.278766632,-7.341179848
11.5362025,0.8231309652,-6.24766016,-7.183253765
11.54095667,0.4689932466,-6.372086525,-6.817151546
11.54571088,0.01196411345,-6.41037178,-6.532405853
11.5504651,-0.2727817893,-6.498906136,-6.388836384
11.55521932,-0.394815743,-6.635297298,-6.534798622
11.55997354,-0.5216353536,-6.788437843,-6.920042992
11.56472776,-0.7633104324,-6.92243576,-7.042077065
11.56948198,-0.9451649189,-7.058826923,-7.039684296
11.5742362,-1.067198873,-7.24307394,-6.955935478
11.57899042,-0.9571290612,-7.611568928,-6.881757736
11.58374458,-1.227517962,-7.637889862,-6.455835342
11.5884988,-1.272981644,-7.838887215,-6.156732559
11.59325302,-1.241874933,-8.05424118,-6.178267956
11.59800724,-1.26341033,-8.260024071,-6.563512325
11.60276146,-0.8733802438,-8.697910309,-7.190432072
11.60751568,-0.7489534616,-8.961120605,-7.508677483
11.61226989,-0.70348984,-9.243474007,-7.5421772
11.61702406,-0.4618147612,-9.614361763,-7.377072334
11.62177828,-0.4522434771,-9.915857315,-7.142575741
11.6265325,-0.2632105052,-10.24606609,-6.530013084
11.63128672,-0.2368894368,-10.41835022,-5.998806477
11.63604094,-0.2225325108,-10.56909752,-5.704489231
11.64079516,-0.313459754,-10.60738277,-5.6566329
11.64554932,-0.337387979,-10.59063339,-5.793023586
11.65030354,-0.4618147612,-10.4279213,-5.927021503
11.65505776,-0.5383850932,-10.22931671,-6.087340832
11.65981198,-0.7537391186,-9.875179291,-6.15433979
11.6645662,-0.7537391186,-9.784252167,-6.132804394
11.66932042,-0.6771687865,-9.650253296,-6.001199245
11.67407463,-0.6652047038,-9.540184021,-5.955735683
11.67882885,-0.9188438654,-9.31525898,-6.056233883
11.68358302,-0.5479564071,-9.674181938,-6.28355217
11.68833724,-0.3254238665,-9.784252167,-6.549155712
11.69309146,-0.3684946895,-9.803394318,-6.929614544
11.69784568,-0.5742774606,-10.07856941,-7.391428947
11.70259989,-0.2368894368,-10.57866859,-7.810173035
11.70735411,-0.2847459018,-10.98544884,-8.190631866
11.71210833,-0.9164510965,-11.05005455,-8.451449394
11.71686255,-0.6484549642,-12.06221867,-8.791230202
11.72161672,-0.3254238665,-12.72263813,-9.004191399
11.72637094,-0.1770688742,-13.3710928,-9.049654961
11.73112516,-0.5599204898,-13.33041477,-9.023334503
11.73587937,0.2536391914,-14.42872047,-9.085547447
11.74063359,0.8111668825,-14.85464287,-8.98026371
11.74538781,1.13419795,-15.1154604,-8.755337715
11.75014203,1.012163997,-14.86660671,-8.568697929
11.7548962,0.8973084688,-14.73739433,-8.470592499
11.75965042,1.081555843,-14.64407444,-8.618947029
11.76440463,1.131805062,-14.39761353,-8.693124771
11.76915885,0.9571290612,-14.06022549,-8.810373306
11.77391307,0.8159525394,-13.65105343,-8.946763992
11.77866729,0.5982056856,-13.16052437,-9.092725754
11.78342151,0.6197410822,-12.76570892,-9.166903496
11.78817568,0.7728816867,-12.46660614,-9.087940216
11.79292989,0.8925228715,-12.30628681,-8.941978455
11.79768411,0.9116654396,-12.2799654,-8.855836868
11.80243833,0.8590233326,-12.37807178,-8.884550095
11.80719255,0.7417750359,-12.5120697,-8.90130043
11.81194677,0.5623133183,-12.58864021,-8.925228119
11.81670099,0.3158525825,-12.57667542,-8.898907661
11.82145516,0.09092725813,-12.48335552,-8.786444664
11.82620937,-0.0765703246,-12.30867958,-8.602197647
11.83096359,-0.1411765367,-12.0598259,-8.374878883
11.83571781,-0.1674975902,-11.74158096,-8.0757761
11.84047203,-0.1435693651,-11.36830044,-7.771887779
11.84522625,-0.1244267747,-10.89691448,-7.389036179
11.84998047,-0.1866401732,-10.3848505,-6.87457943
11.85473463,-0.2297109663,-9.853643417,-6.357729912
11.85948885,-0.3828516304,-9.288937569,-5.821737289
11.86424307,-0.5335994363,-8.712266922,-5.419743061
