Time (s),X (m/s^2),Y (m/s^2),Z (m/s^2)
9.004883667,-0.7578774640302723,-2.0553655338313024,0.4450416610457499
9.014809667,-0.6425824692511781,-2.403578796388795,0.5246143646210495
9.024734667,-0.5265300436729325,-2.744892472300067,0.6061912894468695
9.034660667,-0.41060396960028156,-3.0776139261387736,0.6894460894247845
9.044586667,-0.2956776479349156,-3.400085328821049,0.7740244627258822
9.054511667,-0.18260662083746101,-3.7106955792876906,0.8595455903195071
9.064437667,-0.0722213190708646,-4.007892019088124,0.9456037991313165
9.074363667,0.034679896599728526,-4.290191841640662,1.0317704403173726
9.084288667,0.13733733078154486,-4.556193098084268,1.1175959758446474
9.094214667,0.23503611653473502,-4.804585202594976,1.2026122697919437
9.104140667,0.32711187787940177,-5.034158842007942,1.286335083172777
9.114065667,0.4129558258894543,-5.2438151977361676,1.3682667714406391
9.123991667,0.49201922730953385,-5.432574392366107,1.4478991818069626
9.133917667,0.5638171918529812,-5.599583078892728,1.5247167436368612
9.143842667,0.6279317336291106,-5.744121097238042,1.5981997404884258
9.153768667,0.6840140729854701,-5.865607130303435,1.6678277478243082
9.163694667,0.7317861570123468,-5.963603300040058,1.7330832168709271
9.173619667,0.7710413897085869,-6.037818652585741,1.7934551830149197
9.183545667,0.8016445760072495,-6.088111490363956,1.8484430764128832
9.193471667,0.8235310971609695,-6.114490518494784,1.8975606125522841
9.203396667,0.8367053480918579,-6.11711478340974,1.9403397407271359
9.213322667,0.8412384798919964,-6.096292393382863,1.9763346284661547
9.223248667,0.8372655022268554,-6.0524780234321645,2.005125659636185
9.233173667,0.8249818103488719,-5.986269220023028,2.0263234227813007
9.243099667,0.8046392093285893,-5.898401533667552,2.039572663723882
9.253025667,0.7765415138073581,-5.789742519608303,2.0445561724328924
9.262950667,0.7410398050615561,-5.661284658100723,2.04099856917396
9.272876667,0.6985274283929761,-5.514137256024058,2.028669949873328
9.282802667,0.6494348128213459,-5.3495174003827275,2.0073893462769954
9.292728667,0.5942241920332809,-5.1687400418346074,1.9770279534825712
9.302653667,0.5333843011270858,-4.973207293199967,1.9375120762094407
9.312579667,0.4674251185656299,-4.7643970344247535,1.8888257459634805
9.322505667,0.39687271744281527,-4.543850921755249,1.8310129638316033
9.332430667,0.32226428493787934,-4.313161904624162,1.764179527322907
9.342356667,0.2441433636146581,-4.073961358597289,1.6884944035911966
9.352282667,0.16305536265957965,-3.827905946542554,1.6041906149864698
9.362207667,0.0795433806693858,-3.5766643230699753,1.5115656063457021
9.372133667,-0.005855626382658404,-3.321903799480621,1.4109810675002967
9.382059667,-0.09261430812134559,-3.065277088128133,1.3028621898347919
9.391984667,-0.18021800097982807,-2.8084092462961223,1.1876963421655844
9.401910667,-0.2681674265302594,-2.552884940455447,1.0660311574381605
9.411836667,-0.35598101634102175,-2.300236152097062,0.9384720263638686
9.421761667,-0.4431968806896282,-2.0519304460162795,0.8056789969678698
9.431687667,-0.5293744427781849,-1.809359920339209,0.668363081523575
9.441613667,-0.6140957608778917,-1.5738309540313595,0.5272819763635621
9.451538667,-0.6969665592784328,-1.3465548618471488,0.38323520644147685
9.461464667,-0.7776169866878809,-1.1286395588963654,0.23705871488464286
9.471390667,-0.8557021189545715,-0.9210823274854342,0.08961892726292488
9.481315667,-0.9309022219526195,-0.7247637676247517,-0.058193669809777394
9.491241667,-1.0029227900630437,-0.5404429994349065,-0.2054713863802538
9.501167667,-1.071494375848124,-0.3687541706366465,-0.3512965647267662
9.511092667,-1.1363722273405197,-0.21020430559643394,-0.49474912640838126
9.521018417,-1.1973357508837321,-0.06517251439134998,-0.6349143578660744
9.530944417,-1.2541878195769804,0.06608943850375311,-0.7708908564828612
9.540869417,-1.3067539498874094,0.18345522555146662,-0.9017985549266467
9.550795417,-1.3548813715458512,0.2869207463428681,-1.0267867382843043
9.560721417,-1.3984380179724496,0.37659967418582235,-1.145041965755419
9.570646417,-1.4373114657534305,0.4527178344305029,-1.2557958063816292
9.580572417,-1.4714078519005989,0.5156065063515572,-1.3583322963592412
9.590498417,-1.5006507968460232,0.5656947552455636,-1.4519950239777841
9.600423417,-1.5249803595984388,0.6035009143806666,-1.5361937473571323
9.610349417,-1.5443520494402045,0.6296233473715263,-1.610410450173969
9.620275417,-1.5587359160745833,0.6447306302335962,-1.674204741732527
9.630200417,-1.5681157372102243,0.6495512984949512,-1.7272185103807776
9.640126417,-1.57248831907024,0.64486330790068,-1.7691797438812005
9.650052417,-1.571862921116142,0.6314833569585591,-1.799905437559811
9.659977417,-1.5662608113820684,0.6102562154175071,-1.8193035216513125
9.669903417,-1.5557149533962404,0.5820441945431573,-1.8273737539073454
9.679829417,-1.5402698200349847,0.5477168830551006,-1.8242075423194672
9.689755417,-1.5199813242245115,0.5081412578694191,-1.8099866847144401
9.699680417,-1.4949168516893956,0.4641722631164535,-1.7849810349542703
9.709606417,-1.4651553774601427,0.41664393622654267,-1.7495451272593407
9.719532417,-1.43078764591862,0.36636114753787463,-1.704113809321459
9.729457417,-1.3919163937788757,0.31409201015879984,-1.6491969510933908
9.739383417,-1.348656596299911,0.260561009095975,-1.5853733098282043
9.749309417,-1.30113571883193,0.20644289191440637,-1.5132836435146304
9.759234417,-1.2494939581196498,0.15235735633210765,-1.4336231744997467
9.769160417,-1.1938844600812792,0.09886456216808294,-1.3471335128968174
9.779086417,-1.1344735021656045,0.04646148532541872,-1.2545941554858604
9.789011417,-1.0714406278946886,-0.004420879777346261,-1.1568136803845979
9.798937417,-1.0049787185802084,-0.0534194743817752,-1.0546207608091314
9.808863417,-0.9352939835266183,-0.10024030096902325,-0.9488551225029914
9.818788417,-0.862605847238052,-0.14465874167876142,-0.8403585684689074
9.828714417,-0.78714671186713,-0.1865190945337465,-0.7299661912131964
9.838640417,-0.7091615759746586,-0.22573335402733266,-0.6184978869330529
9.848565417,-0.6289074961986659,-0.26227926373422905,-0.5067502783867531
9.858491417,-0.5466528855923001,-0.29619767019157145,-0.39548914397859114
9.868417417,-0.4626766498137606,-0.32758920965963656,-0.2854424399896823
9.878342417,-0.3772671688203253,-0.3566103623806342,-0.17729399098327206
9.888268417,-0.2907211366045255,-0.38346891241022996,-0.07167791058003892
9.898194417,-0.20334227488751405,-0.4084188548867996,0.030826198383786203
9.908119417,-0.11543993905207424,-0.431754796691687,0.12969722835510172
9.918045417,-0.027327636460317103,-0.45380590085155514,0.22447571296688876
9.927971417,0.06067852110837894,-0.47492942978720565,0.3147661234716821
9.937897417,0.14826140792288925,-0.49550394771160355,0.40023831699719964
9.947822417,0.23510449407064546,-0.5159222483108904,0.48062814988914543
9.957748417,0.3208934512276974,-0.5365840805321835,0.5557372809529906
9.967674417,0.40531773254339776,-0.5578887527675072,0.6254322000419912
9.977599417,0.48807210739107143,-0.5802277032110632,0.6896425265917925
9.987525417,0.5688581355546402,-0.6039771304028736,0.7483586299542607
9.997451417,0.6473855701863831,-0.6294907818083731,0.8016286286730909
10.00737642,0.7233736840385747,-0.6570929992524879,0.8495548294569661
10.01730242,0.7965525182525608,-0.6870721183546636,0.8922896689280981
10.02722842,0.8666640566465702,-0.7196743153368172,0.9300312225134375
10.03715342,0.9334633305746028,-0.7550979891994692,0.9630183452325025
10.04707942,0.996719460016096,-0.7934887606553035,0.9915255087605938
10.05700542,1.0562166358870613,-0.8349351616525633,1.015857398254245
10.06693042,1.1117550471243924,-0.8794650809716563,1.0363433313324857
10.07685642,1.163151754406637,-0.9270430222482373,1.0533315605828764
10.08678242,1.2102415107776425,-0.9775682207898915,1.0671835200898774
10.09670742,1.252877527991776,-1.0308736546480932,1.0782680755732734
10.10663342,1.2909321859905092,-1.0867259736051322,1.086955836420837
10.11655942,1.3242976814712997,-1.1448263571848167,1.093613585985564
10.12648542,1.3528866100443007,-1.2048122997448005,1.0985988840855248
10.13641042,1.3766324750541516,-1.2662603074302163,1.1022548929366047
10.14633642,1.3954901148211731,-1.328689478509273,1.1049054748833649
10.15626242,1.4094360388763434,-1.3915659256315225,1.10685060716543
10.16618742,1.4184686628126328,-1.4543079861995294,1.10836215539884
10.17611342,1.4226084307522509,-1.5162921557394802,1.1096800435095748
10.18603942,1.4218978141756367,-1.5768596692193944,1.1110088539071887
10.19596442,1.4164011759303508,-1.6353236468132033,1.1125148882558475
10.20589042,1.4062044885636735,-1.690976713594576,1.1143237166262194
10.21581642,1.391414896656148,-1.7430989969461597,1.116518241019659
10.22574142,1.3721601135896406,-1.7909664009671022,1.119137297756788
10.23566742,1.34858764425723,-1.8338590538033588,1.1221748212689735
10.24559342,1.320863826768475,-1.8710698217185444,1.1255795886336895
10.25551842,1.2891726883859302,-1.9019127831191251,1.1292555591606195
10.26544442,1.2537146138662334,-1.9257315568369486,1.1330628162953622
10.27537042,1.2147048281016786,-1.941907381670727,1.1368191104379595
10.28529542,1.1723716993739943,-1.949866848206564,1.1403019918270965
10.29522142,1.1269548744273987,-1.9490891890796187,1.1432515134400028
10.30514742,1.0787032616546866,-1.9391130401464336,1.1453734756632532
10.31507342,1.027872883693989,-1.9195425926132579,1.1463431776046882
10.32499842,0.9747246254819277,-1.8900530649274614,1.1458096343834128
10.33492442,0.9195219082364269,-1.850395432862789,1.1434002155060587
10.34485042,0.8625283238911986,-1.8004003662719241,1.1387256562345236
10.35477542,0.8040052680073507,-1.7399813310754388,1.1313853910833607
10.36470142,0.7442096118753565,-1.6691368250761816,1.1209731556547442
10.37462742,0.6833914561159403,-1.5879517261949139,1.1070827996442771
10.38455242,0.6217920083440535,-1.4965977416923588,1.0893142500193653
10.39447842,0.5596416261320061,-1.3953329565894939,1.0672795591080753
10.40440442,0.49715806344189534,-1.2845004884609894,1.0406089677208108
10.41432942,0.43454495404216825,-1.1645262638877338,1.008956908900006
10.42425542,0.37199055971168693,-1.0359159391390265,0.972007874431107
10.43418142,0.30966680497345306,-0.8992509942328081,0.929482065057936
10.44410642,0.24772861424066442,-0.7551840356696045,0.8811407472106743
10.45403242,0.18631356182254255,-0.604433349333264,0.8267912438398557
10.46395842,0.12554184015297992,-0.4477767517894114,0.7662914936352121
10.47388442,0.06551654662941246,-0.2860447957347635,0.6995541201102119
10.48380942,0.006324284298430298,-0.12011339359182346,0.6265499586593267
10.49373542,-0.05196393393842381,0.04910406808759789,0.5473109953453615
10.50366142,-0.10929149403548154,0.2206650421055965,0.4619326760772064
10.51358642,-0.16561472550490186,0.3936064726461281,0.37057554942680543
10.52351596,-0.22090121212088984,0.5669536896364755,0.27346621082733324
10.53344196,-0.27512790543005644,0.7397294438820504,0.1708975202393121
10.54336696,-0.3282790839137055,0.9109629776160563,0.06322806960080705
10.55329296,-0.3803442052114328,1.0796990226706933,-0.049119118930334646
10.56321896,-0.431315701132929,1.245006617216892,-0.1656586766362489
10.57314396,-0.48118676473380206,1.4059876318797175,-0.2858457575305595
10.58306996,-0.5299491756411764,1.5617848971301955,-0.4090796852608484
10.59299596,-0.5775912049596337,1.7115898265092595,-0.5347083561893997
10.60292096,-0.6240956356626387,1.8546494349661462,-0.662033363937736
10.61284696,-0.6694379293312128,1.9902726588114625,-0.7903157989210063
10.62277296,-0.7135845658855503,2.1178358935085093,-0.9187826664703962
10.63269896,-0.7564915795839356,2.2367876773812596,-1.0466338585352637
10.64262396,-0.7981033118557169,2.346652462829937,-1.1730496061416655
10.65254996,-0.8383513992904781,2.4470334314305604,-1.2971983326449117
10.66247596,-0.8771540131317997,2.53761432503141,-1.418244821448054
10.67240096,-0.9144153647081185,2.6181602813105465,-1.53535860625312
10.68232696,-0.9500254891741292,2.688517678859283,-1.6477224869301057
10.69225296,-0.9838603176002877,2.7486130133481756,-1.7545410696400146
10.70217796,-1.015782044781648,2.7984508423830823,-1.8550492259862847
10.71210396,-1.0456397971480116,2.8381108519427842,-1.9485203628701862
10.72202996,-1.0732706018709948,2.86774411145849,-2.034274392628669
10.73195596,-1.098500654665976,2.887568597286669,-2.1116852921999905
10.74188096,-1.1211468798052866,2.8978640751919063,-2.1801881407765076
10.75180696,-1.1410187714176532,2.898966441167784,-2.239285527984916
10.76173296,-1.1579205002425013,2.8912616261445674,-2.2885532294640862
10.77165796,-1.1716532647120288,2.8751791734894643,-2.3276450542481273
10.78158396,-1.1820178596667097,2.851185598308661,-2.356296779056675
10.79150996,-1.1888174303227568,2.8197776341231804,-2.3743290986531136
10.80143496,-1.191860373526085,2.781475465571187,-2.3816495385815086
10.81136096,-1.19096334316477,2.736816036072554,-2.3782532960447655
10.82128696,-1.1859543122375629,2.6863465082697866,-2.3642229953077982
10.83121196,-1.1766756407904617,2.6306179442887014,-2.339727364550856
10.84113796,-1.1629870968834783,2.570179263876514,-2.305018860399889
10.85106396,-1.1447687769594492,2.505571531807187,-2.2604302835907797
10.86098996,-1.1219238724571452,2.4373226211624677,-2.2063704440898033
10.87091496,-1.0943812312758416,2.3659422951820517,-2.1433189467349543
10.88084096,-1.0620976657982928,2.291917746093196,-2.0718201795965285
10.89076696,-1.0250599635117523,2.215709623405948,-1.9924765972708602
10.90069196,-0.9832865613393569,2.137748575608163,-1.9059414004965072
10.91061796,-0.9368288497646056,2.0584323180701594,-1.8129107217800882
10.92054396,-0.8857720771614955,1.978123227976453,-1.7141154337928115
10.93046896,-0.8302358288506523,1.8971464570370191,-1.6103127025982884
10.94039496,-0.7703740604212487,1.815788546821988,-1.5022774106405035
10.95032096,-0.7063746717759427,1.7342965301770152,-1.3907935743169095
10.96024696,-0.6384586174681279,1.6528775040293395,-1.2766458779179624
10.97017196,-0.5668785597589067,1.5716986622826157,-1.1606114404767607
10.98009796,-0.4919170823736891,1.4908877812032715,-1.0434519254521817
10.99002396,-0.4138844939220349,1.410534153001393,-0.9259060953091175
10.99994896,-0.3331162594256884,1.3306899655949043,-0.8086829035603132
11.00987496,-0.24997010601408703,1.2513721271988678,-0.6924552054497599
11.01980096,-0.16482285466653268,1.1725645330170498,-0.577854155422534
11.02972596,-0.07806703421792771,1.0942207680108031,-0.4654643453355364
11.03965196,0.009892662954314305,1.016267234931282,-0.3558197225044774
11.04957796,0.0986430219737706,0.9386066909819784,-0.24940031155545112
11.05950296,0.18776598077797385,0.8611221697946251,-0.14662974898450237
11.06942896,0.2768422781446175,0.7836812576916092,-0.047873624709559984
11.07935496,0.3654550159177951,0.7061406841707966,0.046561388638674
11.08928096,0.4531930821069742,0.6283511761215518,0.1364276495575397
11.09920596,0.5396543885112405,0.5501625140962555,0.22153594458255074
11.10913196,0.6244488847903416,0.4714287184165859,0.30175421468435704
11.11905796,0.7072013199534743,0.3920132845434265,0.37700566196547486
11.12898296,0.7875537315019637,0.31179438191306086,0.4472662904424083
11.13890896,0.8651676512484027,0.23066992839905232,0.512561936786448
11.14883496,0.9397260244573533,0.14856245320122125,0.5729648484735026
11.15875996,1.0109348449650661,0.06542366361255747,0.6285898680538463
11.16868596,1.0785245131907655,-0.01876136490056251,0.6795902831258217
11.17861196,1.14225092653525,-0.10397045110516245,0.7261534018212271
11.18853796,1.2018963128808104,-0.19014109345432237,0.7684959130303225
11.19846296,1.2572698182683564,-0.2771678433845263,0.8068590893679622
11.20838896,1.3082078598443838,-0.3649003246565392,0.8415038893314871
11.21831496,1.3545742551211941,-0.4531419491103428,0.8727060134144289
11.22823996,1.3962601385684492,-0.541649369883325,0.9007509670872322
11.23816596,1.433183676684264,-0.6301327022381845,0.9259291814702278
11.24809196,1.4652895931818761,-0.7182565297608454,0.9485312402798134
11.25801696,1.4925485168452879,-0.8056417001458679,0.9688432594102776
11.26794296,1.5149561657774813,-0.8918679006134266,0.9871424634361765
11.27786896,1.53253238285664,-0.9764769887746049,1.0036930012588383
11.28779496,1.5453200379525358,-1.0589770409927384,1.0187420406557628
11.29771996,1.5533838127849493,-1.1388470674418778,1.0325161780943877
11.30764596,1.5568088843557712,-1.215542331576586,1.0452181956525124
11.31757196,1.5556995227154802,-1.2885002019350886,1.0570241918003298
11.32749696,1.5501776182712805,-1.3571464562404676,1.06808110834423
11.33742296,1.5403811526468765,-1.420901951532224,1.0785046731837509
11.34734896,1.5264626251385383,-1.4791895691777637,1.088377778017657
11.35727396,1.5085874442211917,-1.5314413396093893,1.097749310832683
11.36719996,1.4869322907130194,-1.5771056483286823,1.1066334630614498
11.37712596,1.461683456581914,-1.6156544224532465,1.1150095288107273
11.38705196,1.4330351614562624,-1.6465901964294567,1.122822207616815
11.39697696,1.4011878481421236,-1.6694529568494725,1.1299824133655945
11.40690296,1.3663464591763461,-1.6838266695965423,1.1363685821352167
11.41682896,1.3287186986680355,-1.6893453977091006,1.141828462923439
11.42675396,1.288513287017031,-1.6856989253565173,1.1461813690301914
11.43667996,1.2459382199622109,-1.6726378119783973,1.1492208646222253
11.44660596,1.2011990472533718,-1.6499778104367937,1.15071785977451
11.45653196,1.1544971896186813,-1.6176035932256982,1.1504240862253687
11.46645696,1.1060283152983026,-1.5754717408502996,1.1480759234186089
11.47638296,1.0559807991327426,-1.5236129564992964,1.143398539483527
11.48630896,1.0045342882383452,-1.4621334815737295,1.1361103053513282
11.49623396,0.9518583990829341,-1.3912156976875663,1.125927433596232
11.50615996,0.8981115715638656,-1.3111179117796745,1.1125687879406183
11.51608596,0.8434401062612344,-1.222173330865071,1.0957608051245498
11.52601158,0.7879774106488338,-1.1247882410059917,1.0752424677906331
11.53593758,0.7318434778861881,-1.0194394114851808,1.0507702645879482
11.54586358,0.6751446175744122,-0.9066707506972915,1.0221230714561196
11.55578858,0.617973451938103,-0.7870892457247767,0.9891068862501378
11.56571458,0.5604091841775809,-0.6613602233435494,0.9515593482682548
11.57564058,0.5025181391297837,-0.5302019763357928,0.9093539755380571
11.58556658,0.44435457041802007,-0.39437980533213074,0.8624040559868639
11.59549158,0.3859617229931608,-0.25469953284712965,0.810666133328291
11.60541758,0.32737313507784993,-0.1120005525869815,0.7541430339163698
11.61534358,0.26861415866907506,0.032851516742957027,0.692886386569508
11.62526858,0.20970367267109083,0.17897249827389042,0.6269985934880493
11.63519458,0.15065595732737877,0.3254675645411375,0.5566342168879784
11.64512058,0.0914826930928796,0.4714393012926269,0.48200075231204165
11.65504658,0.03219504199610679,0.6159958389530417,0.4033587647853908
11.66497158,-0.02719423426270527,0.7582589597172877,0.32102136754511956
11.67489758,-0.08666866677458636,0.8973720855656521,0.2353530259111032
11.68482358,-0.14620602824412224,1.0325080505345314,0.14676767319143705
11.69474858,-0.2057763793635646,1.1628765593904078,0.05572613322624756
11.70467458,-0.2653402472221033,1.2877312348566536,-0.03726714478652575
11.71460058,-0.32484696305777,1.4063761574838745,-0.13166802092218038
11.72452558,-0.38423318035884585,1.5181718067802097,-0.22689723786302432
11.73445158,-0.443421589473739,1.6225403194282986,-0.32234559050772726
11.74437758,-0.502319841493744,1.718969989910281,-0.41737963870934053
11.75430358,-0.5608196919539346,1.8070189501398561,-0.5113479002837322
11.76422858,-0.6187963734863209,1.8863179774279244,-0.6035874526890326
11.77415458,-0.6761082056678566,1.9565723940977202,-0.6934308639290037
11.78408058,-0.7325964497714003,2.017563037131008,-0.7802133663564834
11.79400558,-0.7880854157833915,2.0691462920993,-0.863280181357579
11.80393158,-0.8423828286198441,2.1112532019742494,-0.9419938985231187
