Time (s),Acceleration x (m/s^2),Acceleration y (m/s^2),Acceleration z (m/s^2)
9.003842504,-1.7306853679050254,2.2624124675215245,0.33792299486208754
9.008597817,-1.5761410602973165,2.614252937294752,0.5413275046832055
9.013353129,-1.4302597957476229,2.965730363921841,0.7412626822765813
9.018108494,-1.2934506677944224,3.3155357228511977,0.9369997766813742
9.022863806,-1.1659963276725536,3.6623448126702582,1.1278424462548138
9.027619119,-1.0480470743715653,4.0048248596165,1.3131321607305833
9.032374431,-0.9396161766703667,4.341641281125815,1.4922531954325289
9.037129796,-0.8405765113015539,4.671464575371903,1.66463715221118
9.041885108,-0.750658592342343,4.992977300361972,1.8297669560644225
9.046640421,-0.6694500568165979,5.30488110276783,1.987180290268514
9.051395785,-0.5963966601142972,5.605903753458081,2.1364724452958828
9.056151098,-0.5308048221663706,5.894806143830167,2.2772985674289727
9.06090641,-0.4718457514764125,6.17038919469783,2.409375301720296
9.065661723,-0.4185611592830107,6.431500627838567,2.5324818308825874
9.070417088,-0.36987056047505124,6.6770415494883055,2.6464603169613303
9.0751724,-0.32458014153229375,6.905972795184905,2.7512157564386506
9.079927713,-0.28139315878345983,7.117320986440224,2.846715262040573
9.084683025,-0.23892181270439233,7.310184251719986,2.9329867863994146
9.08943839,-0.19570052589213963,7.483737567031303,3.010117304374228
9.094193702,-0.15020053389110602,7.63723767492931,3.0782504727457365
9.098949015,-0.10084567942077165,7.77002754480768,3.13758378852832
9.103704327,-0.04602928200017674,7.881540341768339,3.188365270411053
9.108459692,0.01586806325765861,7.971302876007976,3.230889691769246
9.113215004,0.08645992150633304,8.038938509373624,3.26549439807125
9.117970317,0.1673348691380738,8.084169500430562,3.2925547461160467
9.122725681,0.26003695558136225,8.106818773997945,3.3124792071719664
9.127480994,0.36604598504925634,8.106811105605383,3.325704180559909
9.132236306,0.48675783840400055,8.08417371566147,3.332688568365384
9.136991619,0.6234650634569124,8.03903627222469,3.3339081656382348
9.141746983,0.7773379668797646,7.971630305020391,3.329849923575366
9.146502296,0.9494064422562299,7.882288036656255,3.321006145777736
9.151257608,1.1405427666535757,7.771440639815271,3.307868679765225
9.156012921,1.3514455925859508,7.639615931598328,3.290923167548158
9.160768285,1.5826253535476968,7.487435518268369,3.270643420178361
9.165523598,1.8343912895775973,7.315611405568756,3.2474859817981367
9.17027891,2.106840284723894,7.124942091697139,3.221884948749858
9.175034223,2.3998476909908293,6.916308162026517,3.194247108809158
9.179789588,2.713060293578807,6.6906674068565595,3.1649474645658175
9.1845449,3.0458915502386414,6.449049485911918,3.134325203353638
9.189300213,3.3975192136228536,6.192550166033325,3.102680173816402
9.194055525,3.766885419905557,5.922325161565148,3.0702699260609743
9.198810838,4.152699299903073,5.639583610326364,3.037307368286842
9.203566202,4.553442140674886,5.345581221711502,3.003959087725622
9.208321515,4.967375096306989,5.041613137318884,2.9703443776090994
9.213076827,5.3925494164471495,4.729006548439288,2.93653500461325
9.21783214,5.826819130364536,4.409113118639099,2.9025557426524813
9.222587504,6.267856093151094,4.083301263401467,2.868385688830546
9.227342817,6.713167269691238,3.752948342198003,2.833960365580188
9.232098129,7.16011410191958,3.4194328213169465,2.7991745993711787
9.236853442,7.605933776409821,3.084126468170659,2.763886150796992
9.241608806,8.047762183069693,2.748386639567849,2.727920053554988
9.246364119,8.482658332003554,2.413548727465628,2.691073601268762
9.251119431,8.907629974641914,2.080918825845803,2.6531219019193917
9.255874744,9.319660157214718,1.7517666813348851,2.613823900636938
9.260630056,9.715734419859281,1.4273189877456731,2.5729287536876506
9.265385421,10.092868343506385,1.1087530808031687,2.530182420851866
9.270140733,10.448135139504018,0.7971910843072948,2.485334331535047
9.274896046,10.778692973724569,0.49369455366066817,2.4381439737830988
9.279651358,11.081811717358468,0.19925965782904057,2.388387256923101
9.284406671,11.354898820522665,-0.08518706332867317,2.3358625092064433
9.289162035,11.595524012569065,-0.3587923332686692,2.2803959912226137
9.293917348,11.801442545484692,-0.6207791358911651,2.221846831363188
9.29867266,11.97061671487648,-0.8704490529847789,2.1601113171330777
9.303427973,12.101235416723565,-1.1071839274155992,2.0951265016236267
9.308183338,12.19173152627741,-1.3304468474699664,2.026873105493984
9.31293865,12.240796916648694,-1.539782459218298,1.9553777107648629
9.317693963,12.247394967640089,-1.7348166261168232,1.8807142542930886
9.322449275,12.210770449924832,-1.9152554677350162,1.8030048370318967
9.327204588,12.130456705653089,-2.0808838219184693,1.7224198710238985
9.331959952,12.006280083550495,-2.2315631862495633,1.6391775902030845
9.336715265,11.838361623614121,-2.3672292046767316,1.5535429539743992
9.341470577,11.627116022435718,-2.4878887729618744,1.4658259745391329
9.34622589,11.373247943892562,-2.5936168415338243,1.376379500331291
9.350981202,11.077745770601576,-2.6845529960051087,1.2855964889985712
9.355736567,10.741872918599137,-2.760897893839793,1.1939068043552739
9.360491879,10.367156860920806,-2.82290963054143,1.1017735728646847
9.365247192,9.955376025036298,-2.870900100548491,1.0096891366306038
9.370002504,9.508544744500494,-2.9052314071911987,0.9181706416878233
9.374757817,9.0288964568686,-2.9263123630748993,0.8277553026168367
9.379513181,8.51886534815573,-2.9345951077158623,0.738995387138859
9.384268494,7.981066649317919,-2.9305718539713785,0.6524529672413607
9.389023806,7.418275793021513,-2.914771759851808,0.5686944862664317
9.393779119,6.833406640102456,-2.887757908890524,0.48828519385900776
9.398534431,6.229488985203374,-2.8501243713929076,0.4117835023050442
9.403289796,5.609645550363717,-2.802493311131007,0.3397353183656491
9.408045108,4.977068673769431,-2.7455120974911655,0.2726684043485051
9.412800421,4.334996898263927,-2.67985038159444,0.2110868213087186
9.417555733,3.6866916603358373,-2.6061970963480916,0.15546550658109942
9.422311046,3.0354142747849533,-2.5252573446522293,0.10624503793451177
9.427066358,2.3844034027379184,-2.437749147012564,0.06382663788280735
9.431821723,1.7368531808608334,-2.344400029483626,0.02856747398905044
9.436577035,1.0958921774187482,-2.245943444857213,0.0007763135913202867
9.441332348,0.4645633264031954,-2.143115033576489,-0.019290407186922952
9.44608766,-0.1541950253077953,-2.036648744766748,-0.03143204169799626
9.450842973,-0.7575668401740966,-1.9272728505032273,-0.03550666525841387
9.455598285,-1.3428747816855946,-1.815705896615039,-0.03143343814058505
9.46035365,-1.9075951929272033,-1.7026526402096778,-0.01919436743223265
9.465108963,-2.4493715961195153,-1.5888000277584535,0.0011645507646511743
9.469864275,-2.966026663107341,-1.4748132686643385,0.029532815081884493
9.474619588,-3.45557262140685,-1.3613320585499404,0.06573552496414303
9.4793749,-3.916220073396463,-1.2489670046473484,0.10953409839163443
9.484130213,-4.346385217484027,-1.1382963028938726,0.160627585776841
9.488885525,-4.744695470008854,-1.0298627126519884,0.21865456104237224
9.49364089,-5.109993495808031,-0.9241708703415884,0.28319556769745563
9.498396202,-5.4413396641695915,-0.8216849777316293,0.35377609430546864
9.503151515,-5.738012955427132,-0.7228268943004026,0.4298700498394058
9.507906827,-5.99951035172968,-0.6279746560881833,0.5109037050573115
9.51266214,-6.2255447535992,-0.537461435980473,0.5962600613480388
9.517417452,-6.416041471915494,-0.4515749525016442,0.6852836037441464
9.522172817,-6.571133353172273,-0.37055732606927955,0.7772853902575991
9.526928129,-6.691154604448855,-0.2946053733635468,0.8715484256406018
9.531683442,-6.776633393598635,-0.2238713221790747,0.967333264354124
9.536438754,-6.828283309420276,-0.15846392115647082,1.063883785166261
9.541194067,-6.846993775461478,-0.09844991156320265,1.1604330786147405
9.545949379,-6.833819518839423,-0.04385582224937539,1.2562093887178696
9.550704692,-6.789969201395307,0.0053299556372411235,1.350442051844871
9.555460004,-6.716793324322795,0.049154860506897505,1.4423673784190285
9.560215369,-6.615771519155263,0.08769966642786665,1.531234426843458
9.564970681,-6.488499337902221,0.12107585107954043,1.6163106233834634
9.569725994,-6.336674653517058,0.14942287188456288,1.6968871864003092
9.574481306,-6.162083779135,0.17290539432319976,1.7722843180117727
9.579236619,-5.966587411056359,0.19171051322961713,1.841856130679998
9.583991931,-5.752106496634145,0.2060450039233384,1.9049952802098846
9.588747244,-5.5206081242746485,0.21613263546173403,1.9611372801480256
9.593502608,-5.274091528733054,0.22221157325078633,2.0097644756951305
9.598257921,-5.014574300771248,0.22453189291943787,2.050409658090957
9.603013233,-4.744078886017313,0.22335322200124016,2.0826593030369502
9.607768546,-4.464619453463347,0.2189425208345628,2.1061564190562105
9.612523858,-4.178189209340393,0.21157200939552165,2.1206029937045865
9.617279171,-3.8867482270036544,0.20151724264349385,2.1257620272258677
9.622034483,-3.5922118579343403,0.18905533344647277,2.1214591446403013
9.626789796,-3.2964397831161403,0.17446331927922165,2.1075837784977116
9.63154516,-3.001225758016827,0.15801666664602754,2.084089915794351
9.636300473,-2.708288098302687,0.13998790554993132,2.050996404019524
9.641055785,-2.41926094726818,0.12064538526805939,2.0083868130714664
9.645811098,-2.1356863597527473,0.10025214213345444,1.9564088518790985
9.65056641,-1.8590072310078234,0.0790648698971928,1.8952733409365394
9.655321723,-1.5905610925747238,0.05733298349065358,1.8252527445287248
9.660077035,-1.3315747908008722,0.03529776757526738,1.746679269139697
9.664832348,-1.0831600572526345,0.01319160209836197,1.6599425373490833
9.66958766,-0.846309974058807,-0.008762741905005998,1.5654868494040606
9.674343025,-0.6218963311836593,-0.03035274190180931,1.4638080475707116
9.679098338,-0.4106678668056928,-0.05137670334990529,1.3554500012898787
9.68385365,-0.21324937639927474,-0.07164428254256251,1.2410007340708482
9.688608963,-0.03014167082940403,-0.09097695536538308,1.1210882159475322
9.693364275,0.1382776411777796,-0.10920843382734106,0.9963758481952748
9.698119588,0.29175257541379934,-0.12618503177115772,0.8675576698580401
9.7028749,0.43014643288162463,-0.14176598096527634,0.7353533184641842
9.707630213,0.5534387361900136,-0.15582369883160144,0.6005027801082743
9.712385525,0.6617214826405319,-0.16824400936237388,0.46376096679945894
9.717140838,0.7551947582649018,-0.17892631931276556,0.3258921615030979
9.72189615,0.8341617599487922,-0.18778375250107865,0.18766437346032427
9.726651515,0.8990232752386129,-0.19474324596103137,0.04984364801553386
9.731406775,0.950271671473698,-0.19974561268659566,-0.08681162373529265
9.73616214,0.9884844475440462,-0.20274557667074547,-0.22155634960003537
9.740917452,1.0143174028648712,-0.20371178674163914,-0.3536642892597666
9.745672765,1.0284974790790238,-0.20262681624265103,-0.4824334698449945
9.750428077,1.031815330517587,-0.1994871558175303,-0.6071914190642163
9.75518339,1.025117679528248,-0.19430320641215099,-0.7273001718218627
9.759938702,1.0092995123850732,-0.18709927908820526,-0.8421610075544401
9.764694015,0.985296170603137,-0.17791360739277196,-0.9512188770730695
9.769449327,0.9540753911069542,-0.16679837689072546,-1.0539664795179808
9.77420464,0.9166293468808248,-0.1538197750968026,-1.1499479521183726
9.778959952,0.8739667375084164,-0.1390580634901774,-1.2387621378255016
9.783715265,0.8271049764271925,-0.12260767161046802,-1.3200653985415907
9.788470577,0.7770625188201664,-0.1045773114858172,-1.3935739445654909
9.793225942,0.7248513709016534,-0.08509010890101956,-1.4590656539745763
9.797981254,0.6714698180118793,-0.06428374633811164,-1.516381358945113
9.802736567,0.6178954055280044,-0.042310610866807284,-1.5654255795084457
9.807491879,0.5650782032483379,-0.019337938880072004,-1.6061666890154822
9.812247192,0.5139343807289287,0.0044520515901377644,-1.6386364997303386
9.817002504,0.4653401181444778,0.028862051141130628,-1.662929261596929
9.821757817,0.4201258746760021,0.053679582624517067,-1.6792000724084795
9.826513129,0.37907103422725064,0.07867696920251387,-1.6876627034192895
9.831268442,0.3428989464422494,0.10361135791591093,-1.68858685090163
9.836023754,0.3122723795225374,0.12822480960962218,-1.6822948312823567
9.840779067,0.28778940018564225,0.15224446569294145,-1.6691577452899728
9.845534379,0.26997969517300163,0.17538280185732058,-1.6495911449575094
9.850289692,0.2593013478426233,0.1973379787074713,-1.6240502462258835
9.855045004,0.2561380823630423,0.21779429944922443,-1.593024738995858
9.859800317,0.2607969866739273,0.23642278543918477,-1.5570332553154236
9.864555629,0.2735067235970975,0.25288188156151736,-1.516617564348262
9.869310942,0.2944162373018473,0.26681830496417885,-1.4723365692460937
9.874066306,0.32359395989428663,0.2778680524778342,-1.424760185648281
9.878821619,0.36102752039110164,0.28565758383972123,-1.3744631841596195
9.883576931,0.406623955888881,0.2898051994438572,-1.3220190799577283
9.888332244,0.46021042241717275,0.2899226325378957,-1.2679941519128273
9.893087556,0.5215354007834871,0.28561687637666167,-1.212941671519701
9.897842869,0.5902703906650583,0.2764922666099374,-1.1573964187327381
9.902598181,0.6660120842317407,0.26215283794242744,-1.1018695575656905
9.907353494,0.7482850086478517,0.24220497173609543,-1.0468439391027013
9.912108806,0.8365446248757676,0.2162603476876196,-0.992769893355269
9.916864119,0.9301808683042806,0.18393920803275096,-0.9400615641672311
9.921619431,1.0285221148791923,0.1448739369768052,-0.8890938331187845
9.926374744,1.1308395546442744,0.0987129513274135,-0.8401998691743046
9.931130056,1.2363519529072378,0.0451248907310715,-0.7936693307860483
9.935885369,1.3442307775806301,-0.01619691237798352,-0.7497472364687404
9.940640681,1.453605669494715,-0.08552971185345991,-0.7086335086682672
9.945395994,1.5635702304688763,-0.16311641383625372,-0.6704831842566255
9.950151306,1.673188101492981,-0.24916047673994973,-0.6354072734521076
9.954906619,1.7814993004027253,-0.3438207011009073,-0.6034742377114282
9.959661931,1.8875267849313198,-0.4472059733206445,-0.5747120465133271
9.964417244,1.9902832031139852,-0.5593700345665675,-0.5491107632491373
9.969172556,2.0887777889415795,-0.6803063522587084,-0.5266256018567544
9.973927869,2.1820233571442156,-0.8099431765502674,-0.5071803884798566
9.978683181,2.269043347208376,-0.9481388679374466,-0.49067135633204667
9.983438494,2.348878863305748,-1.0946775845514798,-0.4769711970950482
9.988193806,2.4205956538499227,-1.2492654187413574,-0.4659332885892529
9.992949119,2.4832909720395113,-1.4115270722065276,-0.4573960161733991
9.997704431,2.5361002571581173,-1.581003157156517,-0.45118710450233884
10.00245974,2.5782035757836774,-1.7571482077570837,-0.4471278772809263
10.00721506,2.608831762712818,-1.939329481507486,-0.4450373663248363
10.01197037,2.627272203748568,-2.126826624240213,-0.44473619869348924
10.01672568,2.632874206856485,-2.3188322651502125,-0.44605020236453213
10.02148099,2.6250539143967737,-2.5144535995204875,-0.4488136856038058
10.02623631,2.603298716353401,-2.7127150063908916,-0.4528723600462488
10.03099162,2.56717113158881,-2.9125617361575045,-0.4580858898657717
10.03574693,2.5163121304108165,-3.112864689041649,-0.4643300581788905
10.04050224,2.450443877071689,-3.3124262897841104,-0.47149854744629033
10.04525756,2.3693718755874325,-3.5099874471474397,-0.47950433413176496
10.05001287,2.2729865068872632,-3.7042355692021482,-0.4882807001082382
10.05476818,2.1612639500819055,-3.893813587285758,-0.4977818648123183
10.05952349,2.034266485756714,-4.077329923328017,-0.5079832432940699
10.06427881,1.892142184743471,-4.253369317316173,-0.5188813363416993
10.06903412,1.7351239918184869,-4.420504414416821,-0.5304932599783477
10.07378943,1.5635282201563123,-4.577307995059406,-0.5428559230001085
10.07854474,1.377752479005346,-4.722365716508338,-0.5560248630234325
10.08330006,1.1782730637353358,-4.854289221492627,-0.5700727539147163
10.08805537,0.965641843854952,-4.971729458688156,-0.5850876006245849
10.09281068,0.7404826904845263,-5.073390051577638,-0.6011706413651625
10.09756599,0.5034874898069913,-5.158040546703701,-0.6184339815948457
10.10232131,0.25541179305589873,-5.224529369758025,-0.6369979891026376
10.10707662,-0.0029298433548912857,-5.271796318400497,-0.6569884842495365
10.11183193,-0.2706687717841776,-5.298884424185068,-0.6785337638107243
10.11658724,-0.5468873641984603,-5.304951022437492,-0.7017615006444561
10.12134256,-0.8306242619242438,-5.289277878299136,-0.7267955644588328
10.12609787,-1.1208797062213594,-5.251280229300798,-0.7537528111995102
10.13085318,-1.4166208921030683,-5.190514619611518,-0.7827398900340227
10.13560849,-1.7167872890503992,-5.1066854183284045,-0.8138501175697846
10.14036381,-2.0202958742372785,-4.999649933555005,-0.8471604688002066
10.14511912,-2.326046226636097,-4.869422055132811,-0.8827287332807622
10.14987443,-2.6329254339363306,-4.716174381169283,-0.9205908831378309
10.15462974,-2.9398127686066515,-4.540238806290936,-0.9607586966963403
10.15938506,-3.245584094700562,-4.342105572196452,-1.0032176778602355
10.16414037,-3.549115973192183,-4.1224208030128455,-1.047925307047203
10.16889568,-3.849289440744842,-3.8819825686615284,-1.094809654593843
10.17365099,-4.1449934447740935,-3.621735538474836,-1.1437683821086397
10.17840625,-4.43512792624213,-3.342764304278118,-1.1946681510899488
10.18316157,-4.718606550476207,-3.0462854667619084,-1.2473444509593736
10.18791688,-4.99435909508634,-2.7336385910274625,-1.3016018502113442
10.19267219,-5.261333512477758,-2.4062761466421367,-1.3572146645545602
10.1974275,-5.5184976922891025,-2.065752554433184,-1.4139280250578625
10.20218282,-5.764840956118195,-1.7137124666718533,-1.4714593185701235
10.20693813,-5.999375322870465,-1.3518784093634173,-1.529499964210886
10.21169344,-6.221136587797875,-0.9820379152491896,-1.5877174857908174
10.21644875,-6.429185261882535,-0.6060302742539809,-1.6457578412511003
10.22120407,-6.622607421081112,-0.22573302515289514,-1.7032479748676046
10.22595938,-6.800515517550144,0.15695169109566878,-1.759798563283309
10.23071469,-6.962049207459768,0.5401107991521147,-1.8150069304996002
10.23547,-7.1063762521189044,0.9218338641419537,-1.8684601092592485
10.24022532,-7.232693550469307,1.3002264626175992,-1.9197380270630113
10.24498063,-7.340228361252519,1.6734232421945325,-1.9684167948039166
10.24973594,-7.428239772175327,2.0396005664804284,-2.0140720750353367
10.25449125,-7.496020471142566,2.396988646739449,-2.056282505523352
10.25924652,-7.542898871020108,2.7438830674477956,-2.094633152338921
10.26400183,-7.568241634305529,3.078655619555883,-2.128718965825677
10.26875714,-7.571456637348385,3.399764362870898,-2.1581482129207927
10.27351245,-7.55199640520957,3.7057628474634887,-2.182545860916637
10.27826776,-7.50936203778529,3.995308433299966,-2.2015568907343512
10.28302308,-7.4431076355031,4.267169657273392,-2.214849521457953
10.28777839,-7.352845218977058,4.520232607269049,-2.22211833129395
10.2925337,-7.238250121874834,4.753506273644141,-2.223087262513985
10.29728902,-7.099066820307709,4.966126859333027,-2.2175124990045645
10.30204433,-6.935115145655119,5.157361040542237,-2.2051852048908542
10.30679964,-6.7462968111874595,5.3266081805309895,-2.1859341116062367
10.31155495,-6.532602166481606,5.473401509148311,-2.1596279390390842
10.31631021,-6.294117077851861,5.597408290475964,-2.126177634253438
10.32106552,-6.03102981843061,5.6984290099391375,-2.085538408985239
10.32582084,-5.743637838892249,5.776395620386375,-2.0377115548974998
10.33057615,-5.432354279929298,5.831368893690088,-1.982746013645941
10.33533146,-5.097714081074378,5.863534930230158,-1.9207396772944698
10.34008678,-4.74037953757855,5.873200883172678,-1.8518403935762258
10.34484209,-4.361145157746673,5.860789957841908,-1.7762466499307623
10.3495974,-3.960941677134941,5.826835748874572,-1.6942079101890266
10.35435271,-3.540839092967352,5.771975979430516,-1.606024578292282
