Time (s),Acceleration x (m/s^2),Acceleration y (m/s^2),Acceleration z (m/s^2)
6.003279817,-0.5252482841161662,1.526132545908608,-0.6825680883322588
6.008042682,-0.7518724435535553,1.6242224459855406,-0.7182957752821433
6.012832213,-0.9714370168815258,1.7267342393389005,-0.7506290125685902
6.017608359,-1.181613017150747,1.8331843590887296,-0.7788964239624739
6.022371275,-1.3801954175534128,1.943007689789322,-0.8024317787237147
6.027160755,-1.5651363170934869,2.0555602814490537,-0.8205822328475917
6.031936952,-1.7345756917908253,2.1701228488673006,-0.8327169372828659
6.036699765,-1.886869162380788,2.2859050194186477,-0.8382359293944864
6.041489296,-2.020612266936437,2.402050294073005,-0.8365792141975714
6.046265494,-2.1346607962904405,2.517641689475592,-0.8272359316897525
6.051028359,-2.228146828926885,2.631708032961126,-0.8097534956548541
6.055817838,-2.300490187648121,2.743230886921294,-0.7837465782428169
6.060594036,-2.3514051306117887,2.851152083245086,-0.7489058046109284
6.065370234,-2.3809021820428518,2.954381851739091,-0.7050060137498122
6.07014638,-2.389285100565679,3.051807527697782,-0.6519139353260951
6.074922577,-2.37714307320417,3.1423028225462515,-0.5895951275488351
6.079698775,-2.345338308745776,3.2247376374293695,-0.5181200177124077
6.084474973,-2.294989284281812,3.297988392722391,-0.43766888609143867
6.089251171,-2.227449972882077,3.360948836792611,-0.34853563679252464
6.094014036,-2.1442854482121527,3.412541285161741,-0.2511302073904233
6.098803515,-2.0472443225519616,3.4517282266356153,-0.14597948341068387
6.103579713,-1.9382285261047916,3.4775242157609476,-0.03372660401541921
6.108342577,-1.8192609751691218,3.4890079508489915,0.08487142880635445
6.113132057,-1.6924517033253816,3.485334414253448,0.2089478943762896
6.117908255,-1.559963043920518,3.4657469281711863,0.3375322727936966
6.122671119,-1.4239744555863458,3.429588956991785,0.4695579241116507
6.127460598,-1.286647576852574,3.3763154679559935,0.6038714726595183
6.132236796,-1.1500920816550648,3.3055036468860273,0.7392438034144668
6.137012942,-1.0163328843462125,3.216862755898264,0.8743825408964057
6.14178914,-0.8872792106841356,3.110242916013484,1.0079458480724837
6.146565338,-0.7646960113224788,2.9856426000215412,1.1385573540884784
6.151328202,-0.6501781475169004,2.843214629975872,1.2648219958926143
6.156117682,-0.54512772492101,2.683270488932613,1.3853425404292685
6.16089388,-0.4507348907173,2.5062827775624865,1.4987365412455493
6.165656796,-0.367962344385579,2.312885672652646,1.6036534758879615
6.170446223,-0.2975337466377661,2.1038732756103746,1.698791808015363
6.175222473,-0.2399261463518477,1.8801957738977946,1.7829157205665958
6.179985338,-0.19536648155239328,1.6429533759595574,1.8548712736862527
6.184774817,-0.16383214714796832,1.3933880199395363,1.9136017534406955
6.189550963,-0.14505555979193827,1.1328728975007094,1.9581619943650317
6.194327161,-0.13853258989270667,0.8628998753874092,1.987731480009398
6.199103359,-0.14353467307857776,0.5850649381670954,2.0016260500492127
6.203879505,-0.15912435873514624,0.3010518152479246,1.9993080690673155
6.208642421,-0.18417400227444275,0.012613993141602758,1.980394939676931
6.2134319,-0.21738726146049023,-0.2784446507620553,1.9446658703373938
6.218208098,-0.25732301632793586,-0.5702903247023405,1.8920668352572558
6.222970963,-0.30242129802635326,-0.8610806132221493,1.8227136893588753
6.227760442,-0.351030785388547,-1.1489862626386425,1.7368934245401186
6.23253664,-0.4014374099846963,-1.4322131239282174,1.6350635736796713
6.237299505,-0.4518936013241752,-1.70902390340989,1.5178497854967654
6.242089036,-0.5006477038997489,-1.9777593655814385,1.3860416063287444
6.246865234,-0.545973107003344,-2.2368586329582283,1.2405865143716523
6.251628046,-0.5861966464813226,-2.4848782350124767,1.0825822585884353
6.256417577,-0.619725864093997,-2.7205095724514936,0.9132675593269336
6.261193723,-0.6450747434462408,-2.9425944841476066,0.7340112319713398
6.265956588,-0.6608875795238076,-3.1501386319151803,0.5462998000496968
6.270746119,-0.6659606794548834,-3.3423224526107167,0.3517236713889619
6.275522265,-0.6592616332603198,-3.518509466953509,0.1519619610657683
6.280285182,-0.6399459337456826,-3.6782517790986113,-0.05123394148430476
6.285074661,-0.6073707636308235,-3.821292649562461,-0.256057946692947
6.289850859,-0.5611058051223936,-3.9475660760363542,-0.4606678454145592
6.294613723,-0.5009409620947106,-4.057193371246481,-0.6632047372960548
6.299403255,-0.42689091768048615,-4.150476783243414,-0.8618131225514001
6.3041794,-0.3391964806671242,-4.227890259791488,-1.0546614453859477
6.308955598,-0.23832270364345565,-4.2900675129883235,-1.2399628497141701
6.313731796,-0.1249537858678569,-4.337787590996532,-1.4159958814943328
6.318507994,1.5194275958809188e-05,-4.371958209666529,-1.5811248489061243
6.323270859,0.1354896378424044,-4.393597137766479,-1.7338195336944906
6.328060286,0.2801897581931194,-4.403811965657835,-1.8726739357952689
6.332836484,0.4326677315882754,-4.403778617831952,-1.9964237298707346
6.3375994,0.5913274670399088,-4.394718992998833,-2.1039621174592638
6.34238888,0.754446753798986,-4.377878129567763,-2.1943537727111218
6.347165077,0.9202015012685311,-4.354501298528504,-2.266846603212783
6.351927942,1.0866917433512633,-4.325811420308392,-2.3208810795314943
6.356717421,1.2519690387963867,-4.2929871883062996,-2.3560969266319542
6.361493619,1.414064862642896,-4.257142260896774,-2.3723370158243795
6.366256484,1.5710195528544129,-4.21930585713521,-2.369648345996936
6.371046015,1.7209113519831016,-4.180405060449325,-2.3482800561256
6.375822161,1.8618850673264078,-4.1412491003655045,-2.308678465849552
6.380585025,1.992179865546888,-4.102515845489619,-2.25147919553924
6.385374505,2.1101557197301477,-4.064740701609394,-2.177496470203719
6.390150755,2.2143180383253402,-4.0283080665030395,-2.087709761753863
6.3949269,2.3033400257567145,-3.993445447611975,-1.9832479712494688
6.399703098,2.3760823530133024,-3.9602203007279893,-1.8653713970377022
6.404479296,2.431609752884539,-3.9285395985290403,-1.7354517765689288
6.409242161,2.469204199149847,-3.898152088631743,-1.594950729465987
6.41403164,2.4883743832752696,-3.8686531530646975,-1.4453969668869004
6.418807838,2.4888612676630983,-3.8394921358365943,-1.2883626663977552
6.423570702,2.470639572227687,-3.809981964175579,-1.1254394413808193
6.428360182,2.4339151407512403,-3.779310854568164,-0.9582143587638756
6.43313638,2.379118233381881,-3.746555869626089,-0.7882464773382375
6.437899244,2.306892898458692,-3.710698077179612,-0.6170443877496421
6.442688723,2.218082685549044,-3.6706390573302348,-0.4460452290873438
6.447464921,2.1137130655813037,-3.62521850317557,-0.27659563118898645
6.452227786,1.9949710159183245,-3.5732326632275053,-0.10993498494020258
6.457017265,1.8631823015201054,-3.513453376105257,0.05281862248032222
6.461793463,1.7197870336708139,-3.4446474501182136,0.21067954910746525
6.466556327,1.5663141139632282,-3.36559614179228,0.3628026440559274
6.471345859,1.4043551750025394,-3.275114488459178,0.5084881127846049
6.476122005,1.2355386136848725,-3.1720702512889454,0.6471832010959767
6.480884869,1.0615042810825235,-3.055402227736858,0.7784807754547373
6.4856744,0.883879347684988,-2.9241376978932374,0.9021149483560481
6.490450546,0.7042558065316303,-2.777408779143436,1.0179539615278717
6.495213463,0.5241700121215709,-2.6144674785738684,1.1259905965115171
6.500002942,0.3450845820569202,-2.434699252615787,1.2263304306275125
6.50477914,0.1683729124043876,-2.2376349082436584,1.3191782952905082
6.509542005,-0.004693522651599312,-2.0229607095020383,1.4048233225910753
6.514331484,-0.17295499970762726,-1.790526586690731,1.483622985160114
6.519107682,-0.33537049957043613,-1.5403523817887252,1.555986543303971
6.523870546,-0.4910218596489455,-1.2726321007482524,1.6223583110416044
6.528660025,-0.6391152695349996,-0.987736179629328,1.6832011376876643
6.533436223,-0.7789803121717789,-0.6862118065515005,1.738980473813589
6.538199088,-0.9100667971371015,-0.3687813751152699,1.7901493511761237
6.542988567,-1.031939660891888,-0.03633917716606552,1.8371345582485243
6.547764817,-1.144272221850414,0.31005352727231067,1.8803242397616495
6.55252763,-1.2468380796221976,0.6691748987978703,1.92005709368683
6.557317109,-1.339501943252218,1.039650180923179,1.956613285631872
6.562093307,-1.4222096666376787,1.4199604356181987,1.9902071515389264
6.566856223,-1.4949777610871278,1.8084521437947303,2.0209817170310673
6.571645702,-1.5578826439957805,2.2033474624527476,2.0490050267313205
6.576421848,-1.6110498685693793,2.602754940030508,2.0742682490190205
6.581184765,-1.6546435636902175,3.004680512620102,2.0966854997887356
6.585974244,-1.6888562967027019,3.407038636299396,2.116095311448582
6.590750442,-1.7138995556528847,3.8076634532358753,2.1322636593477564
6.595513307,-1.7299950314281893,4.2043199384411025,2.1448884459121684
6.600302786,-1.7373668639198954,4.5947150264953756,2.1536053322654753
6.605078984,-1.73623499864491,4.976508769411863,2.15799479787129
6.6098419,-1.7268097798775124,5.347325624247264,2.157590300619132
6.61463138,-1.7092878825631528,5.704766008536341,2.151887402060621
6.619407525,-1.6838496581506763,6.046418290180419,2.1403537142418805
6.624183723,-1.6506579394204102,6.369871393995839,2.1224395155115685
6.628959921,-1.6098583172165648,6.672728208747619,2.0975888734111603
6.633736067,-1.5615808688489163,6.9526199662800305,2.065251104234871
6.638512265,-1.5059432848910856,7.207221739341217,2.0248923920190594
6.643288463,-1.443055308932398,7.434269168515927,1.9760073854843208
6.648064609,-1.373024374001334,7.631576483270354,1.9181305906820794
6.652840807,-1.295962290161906,7.797055829458687,1.8508473804232788
6.657617005,-1.2119928105955764,7.928737857643899,1.7738044490211453
6.662393202,-1.1212598791111235,8.024793465192358,1.6867195517313565
6.667169348,-1.0239363413044291,8.083556522310053,1.5893903813517363
6.671945546,-0.9202328848064977,8.10354734968949,1.4817024487791406
6.676721744,-0.8104069612437415,8.08349665450261,1.3636358494559195
6.681497942,-0.6947714342281845,8.022369573450447,1.2352708133957453
6.686274088,-0.5737026948324511,7.9193894182701525,1.0967919527347647
6.691050286,-0.44764798914867127,7.77406067249385,0.9484911375572719
6.69581315,-0.31713171157617437,7.586190750042854,0.790768948411571
6.700602682,-0.18276043198903777,7.355909997771377,0.6241346728310777
6.70537888,-0.04522644453212087,7.083689406708213,0.44920483344296896
6.710141744,0.0946903496756742,6.770355492051098,0.26670025667534336
6.714931223,0.2361223843087588,6.417101811390897,0.07744171316982491
6.719707421,0.37811631869438356,6.025496614982767,-0.1176558168998092
6.724470286,0.5196369650575456,5.597486161105134,-0.3175901790286301
6.729259765,0.6595732996538926,5.1353932829573585,-0.5212802855226513
6.734035963,0.7967465640984805,4.641910860028489,-0.7275754498984677
6.738798827,0.9299204214021995,4.12008992503937,-0.9352656860796471
6.743588359,1.0578130893641153,3.5733222258541617,-1.1430928308201338
6.748364505,1.1791113324312388,3.005317158482814,-1.3497623375491812
6.753127369,1.2924861523646445,2.4200730906485166,-1.5539555824896993
6.757916848,1.3966099786273225,1.8218432034733532,-1.7543425193278872
6.762693046,1.490175122078201,1.2150960897091876,-1.949594516758473
6.767455911,1.5719132212319256,0.6044714587266911,-2.1383972138240877
6.772245442,1.6406153800878531,-0.005268590614235218,-2.319463231147752
6.777021588,1.6951526714269471,-0.6092921597884453,-2.4915445820873128
6.781784452,1.734496660459736,-1.202753329799401,-2.653444636738515
6.786573984,1.7577395914385845,-1.780850358834768,-2.804029503550148
6.791350182,1.764113874588609,-2.338885438216018,-2.942238707353186
6.796113046,1.753010512299071,-2.8723250675962735,-3.0670950572314357
6.800902525,1.7239961113565776,-3.3768600440220014,-3.177713610933672
6.805678723,1.676828141018781,-3.848464008077792,-3.2733096532567316
6.810441588,1.611468113345038,-4.283449456705278,-3.3532056143032944
6.815231067,1.528092380569624,-4.678520119727985,-3.4168368611706215
6.820007265,1.4271002628739695,-5.030818609129408,-3.4637563049830282
6.824770182,1.3091192380241503,-5.337968289869153,-3.4936377752715684
6.829559661,1.1750069425157248,-5.598108390751017,-3.5062781265945
6.834335859,1.0258497541076097,-5.809921474817209,-3.501598059724507
6.839098723,0.862957751750943,-5.9726525212383725,-3.4796416633085365
6.843888202,0.6878558862782876,-6.086119033954776,-3.4405747111443374
6.848664348,0.5022712492035035,-6.150711784112765,-3.384681781710925
6.853427265,0.30811640088956777,-6.167386009093232,-3.3123622956102072
6.858216744,0.10746881276468374,-6.137643123081685,-3.224125589531454
6.86299289,-0.09745341331552494,-6.063503231857214,-3.120585160718144
6.867755807,-0.30431926991232544,-5.947468975006786,-3.0024522233362623
6.872545286,-0.5107156209361366,-5.792481430118786,-2.870528717445929
6.877321484,-0.7141805351715846,-5.6018689969261946,-2.725699902801339
6.882084348,-0.9122385932157316,-5.37929033003566,-2.5689266551368526
6.88687388,-1.1024375164340676,-5.128672504988058,-2.4012375648863733
6.891650025,-1.2823854202928693,-4.8541456837405565,-2.2237209204200923
6.89641289,-1.449787970880337,-4.559975592709231,-2.0375166416118398
6.901202421,-1.6024847213248725,-4.250495140257573,-1.8438082149651605
6.905978567,-1.7384839218346295,-3.9300364826374254,-1.6438146678433097
6.910741484,-1.855995130787215,-3.6028648003005257,-1.4387826062112656
6.915530963,-1.953459002264585,-3.273114973399073,-1.2299783283360268
6.920307161,-2.029573685121894,-2.9447322501106914,-1.0186800171177322
6.925070025,-2.0833173375341763,-2.6214178881745176,-0.806170006769816
6.929859505,-2.1139663363757037,-2.3065806219620755,-0.5937271156061994
6.934635702,-2.12110884022528,-2.0032946669988685,-0.38261903568631156
6.939398567,-2.1046534462225526,-1.7142648235916216,-0.17409477173114093
6.944188046,-2.0648327632313346,-1.4417990843165756,0.030622874576109613
6.948964244,-2.0022018064762093,-1.1877889906161758,0.23034477388621566
6.953740442,-1.9176312022532582,-0.9536978258960995,0.4239228857081754
6.95851664,-1.8122952757242898,-0.740556579937257,0.6102576104082005
6.963292786,-1.6876551800223851,-0.5489674747977694,0.7883050593247561
6.968068984,-1.545437310276517,-0.37911470777263884,0.9570842190920934
6.972845182,-1.387607330627391,-0.23078194439214952,1.1156839780471448
6.977621327,-1.2163402243679926,-0.10337598582770964,1.2632699725276602
6.982384192,-1.03398685513192,0.004044057813292307,1.3990911993740427
6.987173723,-0.8430375983960063,0.09273283264743361,1.5224863287636177
6.991949921,-0.6460836650794526,0.1642208469976082,1.632889639504807
6.996712786,-0.4457767903000303,0.22027346065831432,1.7298364880471055
7.001502265,-0.24478799838105528,0.2628476222550421,1.8129682136722478
7.006278411,-0.045766178892845094,0.2940472242369198,1.8820363765463766
7.011041327,0.14870278244513174,0.3160779321983714,1.9369062234229137
7.015830807,0.33613558013306133,0.33120231520598914,1.9775592784826093
7.020607005,0.514189056508219,0.34169605764727695,2.0040949643235773
7.025369869,0.6806950831758293,0.3498059724682506,2.0167311701778545
7.0301594,0.8336921340134841,0.3577104627184967,2.0158037002778557
7.034935546,0.9714529977440926,0.36748299574069393,2.0017645538197684
7.039698411,1.092508160563963,0.3810590650066622,1.9751790078602456
7.04448789,1.1956644807211594,0.40020702123872803,1.9367214943944282
7.049264088,1.2800188740682776,0.42650305942043215,1.8871702815785782
7.054027005,1.3449668297652564,0.46131055357521344,1.827400985668158
7.058816484,1.3902056762546067,0.5057638384438493,1.7583789543314154
7.06359263,1.4157326174812912,0.5607564478718834,1.681150573720268
7.068355494,1.421837656439828,0.6269337353147275,1.5968335616523193
7.073145025,1.4090916159857785,0.704689724294114,1.5066063184123493
7.077921223,1.3783295538637623,0.7941679683165543,1.4116964160094843
7.082684088,1.3306299483822885,0.8952661430408881,1.313368316872485
7.087473567,1.2672901015673976,1.0076440497796832,1.2129104239339181
7.092249765,1.1897982669635525,1.1307346788387573,1.1116215753175787
7.09701263,1.0998030592314765,1.2637579627843414,1.0107971077449494
7.101802109,0.9990807424887573,1.4057368420090548,0.9117146228557198
7.106578307,0.8895010241882126,1.5555152663516545,0.8156195997275861
7.111354505,0.7729920013385477,1.7117777653824628,0.7237110050327814
7.116130702,0.6515049160458642,1.873070234584629,0.637127059569302
7.120906848,0.526979377642482,2.037821603281467,0.5569313262629284
7.125669765,0.4013096989480681,2.204366071172456,0.4840992898268915
7.130459244,0.2763129741886334,2.3709656225581117,0.4195056016773535
7.13523539,0.15369949518904233,2.5358325501168455,0.36391216502609525
7.139998255,0.03504605978166226,2.6971517432125953,0.31795723386698305
7.144787786,-0.0782273289436427,2.853102519149692,0.2821456955830665
7.149563932,-0.18487694243433997,3.0018797996675826,0.2568407004815345
7.154326848,-0.2838506369603784,3.1417144593299877,0.2422567935890392
7.159116327,-0.37429873929187724,3.2708926970336853,0.23845469503609718
7.163892525,-0.4555803558316485,3.3877743060241925,0.24533786471655344
7.16865539,-0.5272650629149236,3.4908097407488934,0.2626509731076626
7.173444869,-0.5891300478390412,3.5785558997081868,0.2899803818007739
7.178221067,-0.6411528792778489,3.649690561395843,0.3267567140216977
7.182997265,-0.683500187465034,3.703025425047837,0.3722595678094089
7.187773411,-0.7165126255710382,3.7375177193427067,0.4256243936576377
7.192549609,-0.7406865622819687,3.7522803509707283,0.4858515253656215
7.197312473,-0.7566530210074497,3.746590571953923,0.5518173182991524
7.202102005,-0.7651544326271873,3.719897150413611,0.6222873134656943
7.20687815,-0.7670198046778222,3.6718260340698414,0.6959313087269884
7.211641067,-0.7631389287785795,3.6021844983641342,0.7713401803632703
7.216430546,-0.754436249758401,3.510963771135759,0.8470442600040106
7.221206744,-0.7418450061902946,3.3983401236078863,0.921533035068656
7.225969609,-0.7262822253700849,3.264674414263354,0.993275906740725
7.230759088,-0.7086251175101514,3.110510069277823,1.0607437093800862
7.235535286,-0.689689363622228,2.9365694812246943,1.12243067031762
7.24029815,-0.6702097288207854,2.743748807116548,1.1768764702648926
7.24508763,-0.6508233596322165,2.533111148177914,1.2226880530318494
7.249863827,-0.6320560452083849,2.3058780981705245,1.2585608294853985
7.254626692,-0.6143116433241462,2.0634196556315336,1.2832989249130686
7.259416223,-0.5978647952735336,1.8072425085416541,1.2958341310328483
7.264192369,-0.5828569790739556,1.538976717711533,1.2952432434291843
7.268955234,-0.5692958775402275,1.260360847244125,1.2807634916835688
7.273744765,-0.5570579685777265,0.9732256163458111,1.2518058022643948
7.278520911,-0.5458941821427535,0.6794761759347426,1.207965672486568
7.283283827,-0.535438413325738,0.38107314509528645,1.1490314764363867
7.288073307,-0.5252186340537681,0.08001257538808268,1.074990069360873
7.292849505,-0.5146703063758266,-0.22169495577813145,0.9860296041692238
7.29762565,-0.5031517674832887,-0.522045889156788,0.8825395208854121
7.302401848,-0.48996123010193315,-0.8190656010516533,0.7651077158353814
7.307177994,-0.47435502171446425,-1.1108304026143516,0.6345149411710878
7.311940911,-0.4555666726351952,-1.3954893062607727,0.49172652653899807
7.31673039,-0.43282645670872694,-1.6712852264859872,0.3378815529904809
7.321506588,-0.4053809896313925,-1.9365752711004967,0.17427964427106238
7.326269452,-0.37251249871964515,-2.1898497755078834,0.0023655719453005725
7.331058932,-0.3335573943930637,-2.42974973800872,-0.17628810214081614
7.33583513,-0.28792379755625064,-2.6550823287453134,-0.3600001002636851
7.340597994,-0.235107707846826,-2.864834168815122,-0.5470009569563066
7.345387525,-0.17470753399686212,-3.0581821088460996,-0.7354547251670043
7.350163671,-0.10643674732955316,-3.234501277059627,-0.9234815763902858
7.354926588,-0.030134460692088125,-3.3933702141314876,-1.1091810058500173
7.359716067,0.054226223385671436,-3.534572964172932,-1.2906553516654184
