Time (s),Acceleration x (m/s^2),Acceleration y (m/s^2),Acceleration z (m/s^2)
9.000845649,-1.1275472236426093e+54,-6.577145764658465e+53,-1.3402430095110842e+54
9.005845649,-1.1164981024211895e+54,-6.515627399099166e+53,-1.3271063893684363e+54
9.010845115,-1.1055591390185038e+54,-6.4546718001276825e+53,-1.3140957500699748e+54
9.015845081,-1.0947292205054857e+54,-6.394273826198583e+53,-1.3012099376844618e+54
9.020845081,-1.0840072438993606e+54,-6.3344283849205525e+53,-1.288447808341655e+54
9.025845081,-1.0733921161225868e+54,-6.275130432571854e+53,-1.2758082281344039e+54
9.030844914,-1.0628827539612637e+54,-6.216374973619656e+53,-1.2632900730222919e+54
9.035844914,-1.052478084023024e+54,-6.158157060243232e+53,-1.2508922287367936e+54
9.040844247,-1.0421770426944194e+54,-6.100471791861086e+53,-1.2386135906879086e+54
9.045843313,-1.0319785760978027e+54,-6.04331431466203e+53,-1.2264530638722248e+54
9.050843313,-1.0218816400477061e+54,-5.9866798211402275e+53,-1.2144095627823713e+54
9.055842646,-1.0118852000067194e+54,-5.930563549634194e+53,-1.2024820113178246e+54
9.060841779,-1.001988231040862e+54,-5.874960783869708e+53,-1.1906693426970311e+54
9.065841112,-9.921897177744444e+53,-5.81986685250659e+53,-1.1789704993707977e+54
9.070840212,-9.824886543444057e+53,-5.765277128689264e+53,-1.1673844329369117e+54
9.075839312,-9.728840443541256e+53,-5.71118702960102e+53,-1.1559101040559713e+54
9.080838412,-9.633749008267101e+53,-5.65759201602191e+53,-1.144546482368413e+54
9.085837745,-9.539602461577497e+53,-5.604487591890227e+53,-1.1332925464127127e+54
9.090836811,-9.44639112067549e+53,-5.551869303867554e+53,-1.122147283544736e+54
9.095835911,-9.354105395528201e+53,-5.499732740907284e+53,-1.1111096898582078e+54
9.100835244,-9.262735788378307e+53,-5.448073533826558e+53,-1.1001787701062743e+54
9.105835277,-9.172272893249852e+53,-5.39688735488156e+53,-1.0893535376241363e+54
9.110834643,-9.082707395448279e+53,-5.346169917346124e+53,-1.0786330142527334e+54
9.115834643,-8.994030071054495e+53,-5.295916975093627e+53,-1.0680162302634588e+54
9.120834609,-8.906231786412943e+53,-5.246124322182191e+53,-1.0575022242838917e+54
9.125834575,-8.819303497613617e+53,-5.196787792443193e+53,-1.0470900432245362e+54
9.130834141,-8.733236249968086e+53,-5.147903259073175e+53,-1.0367787422065477e+54
9.135834107,-8.648021177479592e+53,-5.099466634229192e+53,-1.0265673844904317e+54
9.140834107,-8.56364950230735e+53,-5.051473868627636e+53,-1.016455041405695e+54
9.14583414,-8.480112534225238e+53,-5.003920951146515e+53,-1.0064407922814325e+54
9.150833273,-8.397401670075118e+53,-4.9568039084312145e+53,-9.965237243778281e+53
9.155833306,-8.315508393214989e+53,-4.910118804503721e+53,-9.867029328185434e+53
9.160833839,-8.234424272962217e+53,-4.863861740375354e+53,-9.769775205239664e+53
9.165833839,-8.154140964032074e+53,-4.818028853663083e+53,-9.673465981452952e+53
9.170833805,-8.0746502059718e+53,-4.772616318209537e+53,-9.57809283999425e+53
9.175833805,-7.995943822590449e+53,-4.7276203437067995e+53,-9.483647040046023e+53
9.180834005,-7.918013721384686e+53,-4.683037175324064e+53,-9.390119916168225e+53
9.185834038,-7.840851892960817e+53,-4.638863093339241e+53,-9.29750287766945e+53
9.190834704,-7.76445041045333e+53,-4.59509441277456e+53,-9.20578740798505e+53
9.195835604,-7.688801428940172e+53,-4.5517274830361706e+53,-9.11496506406196e+53
9.20083557,-7.613897184854957e+53,-4.5087586875577106e+53,-9.025027475749995e+53
9.205836203,-7.539729995396199e+53,-4.46618444344778e+53,-8.935966345199364e+53
9.210837069,-7.466292257933736e+53,-4.424001201141255e+53,-8.847773446264185e+53
9.215837735,-7.393576449412456e+53,-4.382205444054382e+53,-8.76044062391168e+53
9.220838668,-7.321575125753437e+53,-4.340793688243558e+53,-8.673959793636813e+53
9.225839601,-7.250280921252592e+53,-4.2997624820676875e+53,-8.588322940882145e+53
9.230842034,-7.1796865479769405e+53,-4.259108405854034e+53,-8.503522120462748e+53
9.235842734,-7.109784795158599e+53,-4.218828071567465e+53,-8.419549455996053e+53
9.240843634,-7.040568528586575e+53,-4.178918122483008e+53,-8.336397139336597e+53
9.2458445,-6.9720306899964685e+53,-4.139375232861677e+53,-8.254057430015693e+53
9.250844466,-6.90416429645817e+53,-4.100196107629513e+53,-8.172522654686002e+53
9.255844466,-6.83696243976163e+53,-4.061377482059802e+53,-8.091785206571069e+53
9.260845132,-6.770418285800769e+53,-4.022916121458393e+53,-8.0118375449199e+53
9.265845165,-6.704525073955645e+53,-3.984808820852045e+53,-7.932672194466737e+53
9.270845165,-6.639276116472977e+53,-3.947052404679767e+53,-7.854281744896208e+53
9.275845165,-6.574664797845243e+53,-3.909643726487067e+53,-7.776658850314003e+53
9.280845565,-6.510684574188534e+53,-3.87257966862312e+53,-7.699796228723197e+53
9.285845565,-6.447328972619346e+53,-3.835857141940831e+53,-7.623686661506381e+53
9.290844898,-6.3845915906304765e+53,-3.799473085499782e+53,-7.548322992913751e+53
9.295844864,-6.322466095466163e+53,-3.763424466272083e+53,-7.47369812955726e+53
9.300845764,-6.26094622349661e+53,-3.72770827885112e+53,-7.399805039910945e+53
9.305845764,-6.200025779592074e+53,-3.692321545163233e+53,-7.32663675381744e+53
9.310845797,-6.139698636496635e+53,-3.6572613141823197e+53,-7.254186362000686e+53
9.315845797,-6.0799587342017985e+53,-3.6225246616473548e+53,-7.182447015584798e+53
9.320845797,-6.020800079320054e+53,-3.58810868978285e+53,-7.111411925619051e+53
9.325845763,-5.962216744458547e+53,-3.5540105270222877e+53,-7.0410743626088586e+53
9.330845729,-5.904202867592964e+53,-3.520227327734505e+53,-6.97142765605263e+53
9.335845695,-5.846752651441757e+53,-3.4867562719530314e+53,-6.902465193984462e+53
9.340845695,-5.789860362840786e+53,-3.45359456510835e+53,-6.8341804225226015e+53
9.345845728,-5.73352033211844e+53,-3.420739437763083e+53,-6.76656684542361e+53
9.350845761,-5.677726952471212e+53,-3.3881881453501356e+53,-6.699618023642152e+53
9.355845794,-5.622474679339719e+53,-3.3559379679138246e+53,-6.633327574896299e+53
9.360845827,-5.567758029785149e+53,-3.3239862098540275e+53,-6.56768917323819e+53
9.365845827,-5.513571581866161e+53,-3.292330199673373e+53,-6.502696548629939e+53
9.370845793,-5.459909974016287e+53,-3.2609672897275256e+53,-6.43834348652468e+53
9.375845759,-5.406767904421872e+53,-3.2298948559786083e+53,-6.374623827452593e+53
9.380844259,-5.354140130400597e+53,-3.1991102977518042e+53,-6.31153146661187e+53
9.385844259,-5.302021467780637e+53,-3.168611037495167e+53,-6.249060353464508e+53
9.390844292,-5.250406790280552e+53,-3.1383945205426648e+53,-6.18720449133685e+53
9.395844292,-5.199291028890039e+53,-3.1084582148804693e+53,-6.125957937024733e+53
9.400844958,-5.148669171251657e+53,-3.0787996109164842e+53,-6.065314800403067e+53
9.405844924,-5.098536261043645e+53,-3.0494162212531223e+53,-6.005269244039632e+53
9.41084489,-5.048887397363946e+53,-3.0203055804633246e+53,-5.945815482812832e+53
9.415844856,-4.99971773411558e+53,-2.9914652448698265e+53,-5.886947783533221e+53
9.420844856,-4.951022479393515e+53,-2.962892792327669e+53,-5.828660464568519e+53
9.425844889,-4.902796894873184e+53,-2.9345858220099473e+53,-5.770947895471924e+53
9.430844522,-4.855036295200776e+53,-2.9065419541967606e+53,-5.713804496613512e+53
9.435844555,-4.807736047385499e+53,-2.8787588300673402e+53,-5.6572247388145275e+53
9.440845221,-4.760891570193999e+53,-2.8512341114953362e+53,-5.601203142984376e+53
9.445845221,-4.714498333547113e+53,-2.8239654808472167e+53,-5.54573427976012e+53
9.450845187,-4.668551857919137e+53,-2.7969506407837234e+53,-5.49081276914829e+53
9.455845187,-4.623047713739723e+53,-2.7701873140643386e+53,-5.436433280168869e+53
9.460845187,-4.5779815207985296e+53,-2.7436732433547467e+53,-5.382590530501217e+53
9.465844353,-4.533348947652742e+53,-2.7174061910372762e+53,-5.3292792861317966e+53
9.470843486,-4.489145711037573e+53,-2.6913839390242825e+53,-5.276494361003604e+53
9.475842619,-4.445367575279903e+53,-2.6656042885744052e+53,-5.224230616667199e+53
9.480841752,-4.402010351715179e+53,-2.6400650601116505e+53,-5.172482961933192e+53
9.485841752,-4.359069898107736e+53,-2.6147640930472564e+53,-5.1212463525260765e+53
9.490841752,-4.316542118074699e+53,-2.589699245604281e+53,-5.070515790739372e+53
9.495841718,-4.274422960513581e+53,-2.564868394644834e+53,-5.02028632509201e+53
9.500841684,-4.2327084190336914e+53,-2.540269435499878e+53,-4.97055304998593e+53
9.505841684,-4.1913945313914785e+53,-2.5159002818015132e+53,-4.921311105364788e+53
9.510841684,-4.15047737892992e+53,-2.491758865317668e+53,-4.8725556763737115e+53
9.515841717,-4.109953086022095e+53,-2.467843135789108e+53,-4.824281993020041e+53
9.520841717,-4.069817819519027e+53,-2.4441510607686827e+53,-4.776485329834996e+53
9.525841717,-4.030067788201923e+53,-2.4206806254627056e+53,-4.729161005536197e+53
9.530841683,-3.9906992422389115e+53,-2.3974298325743645e+53,-4.682304382691003e+53
9.535841683,-3.951708472646368e+53,-2.374396702149052e+53,-4.635910867380659e+53
9.540841683,-3.913091810755012e+53,-2.3515792714215272e+53,-4.5899759088652295e+53
9.545841716,-3.874845627680864e+53,-2.328975594664822e+53,-4.544494999249327e+53
9.550841716,-3.836966333801171e+53,-2.306583743040828e+53,-4.499463673148683e+53
9.555841716,-3.799450378235376e+53,-2.284401804452526e+53,-4.454877507357569e+53
9.560841716,-3.762294248331273e+53,-2.262427883397801e+53,-4.410732120517158e+53
9.565841716,-3.7254944691564638e+53,-2.2406601008248055e+53,-4.367023172784845e+53
9.570841716,-3.6890476029952524e+53,-2.2190965939888257e+53,-4.323746365504574e+53
9.575841682,-3.6529502488511567e+53,-2.1977355163106156e+53,-4.280897440878119e+53
9.580842082,-3.617199041955183e+53,-2.1765750372361394e+53,-4.238472181637322e+53
9.585842082,-3.581790653280008e+53,-2.155613342097699e+53,-4.1964664107172426e+53
9.590841248,-3.546721789060205e+53,-2.134848631976418e+53,-4.154875990930217e+53
9.595840348,-3.5119891903186393e+53,-2.114279123566073e+53,-4.1136968246408045e+53
9.600840348,-3.4775896323991804e+53,-2.0939030490382686e+53,-4.072924853441615e+53
9.605840314,-3.4435199245058563e+53,-2.0737186559089655e+53,-4.032556057830015e+53
9.61084028,-3.4097769092485413e+53,-2.053724206906349e+53,-3.992586456885767e+53
9.615841146,-3.376357462195271e+53,-2.0339179798400245e+53,-3.953012107949687e+53
9.620842046,-3.343258491431242e+53,-2.014298267471526e+53,-3.913829106303386e+53
9.625842946,-3.3104769371245827e+53,-1.9948633773861225e+53,-3.875033584850187e+53
9.630845146,-3.2780097710989402e+53,-1.9756116318659084e+53,-3.836621713797316e+53
9.635845146,-3.245853996412933e+53,-1.956541367764162e+53,-3.7985897003394148e+53
9.640845146,-3.214006646946482e+53,-1.937650936380941e+53,-3.7609337883434175e+53
9.645845146,-3.1824647869940497e+53,-1.9189387033398984e+53,-3.7236502580348233e+53
9.650845146,-3.151225510864782e+53,-1.9004030484663055e+53,-3.6867354256853855e+53
9.655845112,-3.1202859424895576e+53,-1.8820423656662936e+53,-3.650185643302253e+53
9.660845112,-3.089643235034922e+53,-1.8638550628073178e+53,-3.6139972983186037e+53
9.665845112,-3.0592945705238654e+53,-1.8458395615998607e+53,-3.5781668132858096e+53
9.670845145,-3.0292371594633833e+53,-1.8279942974803895e+53,-3.542690645567181e+53
9.675845145,-2.9994682404787286e+53,-1.8103177194955895e+53,-3.5075652870333412e+53
9.680845145,-2.9699850799542664e+53,-1.7928082901878806e+53,-3.472787263759298e+53
9.685845111,-2.940784971680867e+53,-1.7754644854822175e+53,-3.4383531357232786e+53
9.690845111,-2.911865236509754e+53,-1.7582847945741725e+53,-3.4042594965074123e+53
9.695845111,-2.8832232220127247e+53,-1.7412677198193163e+53,-3.3705029730003054e+53
9.700845144,-2.854856302148657e+53,-1.7244117766238942e+53,-3.3370802251015674e+53
9.705845144,-2.826761876936199e+53,-1.7077154933367828e+53,-3.3039879454283145e+53
9.710845144,-2.7989373721325507e+53,-1.6911774111427196e+53,-3.2712228590236766e+53
9.715845144,-2.7713802389182497e+53,-1.6747960839567881e+53,-3.238781723067343e+53
9.720845144,-2.744087953587839e+53,-1.658570078320132e+53,-3.2066613265881733e+53
9.725845144,-2.7170580172462668e+53,-1.6424979732968707e+53,-3.1748584901788984e+53
9.73084511,-2.6902879555108724e+53,-1.6265783603721897e+53,-3.14337006571293e+53
9.735845076,-2.66377531821882e+53,-1.6108098433515697e+53,-3.1121929360632815e+53
9.740845942,-2.6375176791398497e+53,-1.595191038261125e+53,-3.0813240148236066e+53
9.745846875,-2.611512635694235e+53,-1.579720573249011e+53,-3.050760246031367e+53
9.750846908,-2.585757808675844e+53,-1.5643970884878705e+53,-3.0204986038931227e+53
9.755846908,-2.560250841980215e+53,-1.5492192360782988e+53,-2.990536092511927e+53
9.760846908,-2.5349894023375356e+53,-1.5341856799532812e+53,-2.9608697456167865e+53
9.765846874,-2.5099711790504157e+53,-1.5192950957835643e+53,-2.931496626294133e+53
9.77084684,-2.485193883736343e+53,-1.5045461708839166e+53,-2.902413826721285e+53
9.775846806,-2.4606552500746753e+53,-1.48993760412024e+53,-2.8736184679018793e+53
9.780845472,-2.4363530335580306e+53,-1.475468105817498e+53,-2.845107699403278e+53
9.785845505,-2.4122850112479572e+53,-1.4611363976684293e+53,-2.8168786990959504e+53
9.790845538,-2.38844898153477e+53,-1.446941212643013e+53,-2.7889286728948436e+53
9.795845571,-2.3648427639014508e+53,-1.4328812948986472e+53,-2.76125485450276e+53
9.800845571,-2.34146419869151e+53,-1.418955399691009e+53,-2.7338545051557803e+53
9.805845571,-2.318311146880692e+53,-1.4051622932855667e+53,-2.7067249133707414e+53
9.810845537,-2.2953814898524323e+53,-1.3915007528697184e+53,-2.6798633946947936e+53
9.815845537,-2.272673129176957e+53,-1.3779695664655205e+53,-2.6532672914570346e+53
9.820845537,-2.2501839863939336e+53,-1.3645675328429874e+53,-2.6269339725221895e+53
9.82584557,-2.2279120027985705e+53,-1.3512934614339425e+53,-2.6008608330462742e+53
9.830847236,-2.205855139231096e+53,-1.3381461722464026e+53,-2.5750452942341853e+53
9.835847236,-2.184011375869547e+53,-1.3251244957794843e+53,-2.5494848030991646e+53
9.840847202,-2.1623787120258017e+53,-1.3122272729388175e+53,-2.5241768322241012e+53
9.845847168,-2.140955165944775e+53,-1.2994533549524604e+53,-2.4991188795246406e+53
9.850847134,-2.119738774606688e+53,-1.2868016032873124e+53,-2.474308468014087e+53
9.855847134,-2.0987275935323505e+53,-1.274270889566029e+53,-2.4497431455700887e+53
9.860847134,-2.077919696591376e+53,-1.2618600954844285e+53,-2.425420484703103e+53
9.865847167,-2.0573131758132747e+53,-1.2495681127293872e+53,-2.401338082326638e+53
9.8708472,-2.0369061412013503e+53,-1.2373938428972172e+53,-2.377493559529283e+53
9.875847233,-2.0166967205493276e+53,-1.225336197412511e+53,-2.353884561348524e+53
9.880847233,-1.9966830592606255e+53,-1.2133940974474383e+53,-2.3305087565463192e+53
9.885847233,-1.9768633201701922e+53,-1.2015664738414956e+53,-2.3073638373864132e+53
9.890847199,-1.9572356833688104e+53,-1.1898522670216997e+53,-2.284447519413356e+53
9.895847199,-1.937798346029781e+53,-1.1782504269232288e+53,-2.261757541233185e+53
9.900847199,-1.9185495222379152e+53,-1.1667599129105111e+53,-2.239291664295709e+53
9.905847232,-1.8994874428207547e+53,-1.1553796936987538e+53,-2.217047672678353e+53
9.910847232,-1.8806103551819637e+53,-1.144108747275908e+53,-2.1950233728715206e+53
9.915847232,-1.8619165231368141e+53,-1.1329460608250636e+53,-2.173216593565435e+53
9.920847232,-1.8434042267496885e+53,-1.121890630647274e+53,-2.1516251854384374e+53
9.925847232,-1.8250717621735232e+53,-1.1109414620848128e+53,-2.130247020946699e+53
9.930847232,-1.806917441491116e+53,-1.1000975694448514e+53,-2.109079994115315e+53
9.935847198,-1.7889395925582401e+53,-1.0893579759235445e+53,-2.088122020330741e+53
9.940847198,-1.7711365588485155e+53,-1.0787217135305113e+53,-2.067371036134541e+53
9.945847198,-1.7535066992999952e+53,-1.0681878230136967e+53,-2.0468249990183937e+53
9.950847231,-1.7360483881634387e+53,-1.0577553537845988e+53,-2.0264818872203284e+53
9.955847231,-1.7187600148522306e+53,-1.0474233638438576e+53,-2.0063396995221287e+53
9.960847231,-1.7016399837938946e+53,-1.0371909197071997e+53,-1.986396455047876e+53
9.965847197,-1.6846867142831432e+53,-1.027057096331738e+53,-1.966650193063594e+53
9.970847197,-1.6678986403364149e+53,-1.0170209770426343e+53,-1.947098972777971e+53
9.975847197,-1.6512742105478685e+53,-1.0070816534601339e+53,-1.9277408731441242e+53
9.980845563,-1.6348118879468052e+53,-9.972382254269784e+52,-1.908573992662382e+53
9.985845596,-1.6185101498564832e+53,-9.87489800936198e+52,-1.8895964491840581e+53
9.990845596,-1.6023674877542944e+53,-9.778354960592895e+52,-1.8708063797162013e+53
9.995845596,-1.5863824071332708e+53,-9.682744348747793e+52,-1.8522019402272954e+53
10.0008456,-1.5705534273648985e+53,-9.588057493971655e+52,-1.8337813054538872e+53
10.0058456,-1.5548790815632218e+53,-9.494285795062433e+52,-1.8155426687081345e+53
10.0108456,-1.5393579164502162e+53,-9.401420728768189e+52,-1.797484241686272e+53
10.01584556,-1.5239884922224112e+53,-9.309453849088218e+52,-1.7796042542779977e+53
10.02084556,-1.50876938241876e+53,-9.218376786578144e+52,-1.7619009543767955e+53
10.02584556,-1.4936991737897488e+53,-9.128181247659107e+52,-1.7443726076912017e+53
10.03084526,-1.4787764661677384e+53,-9.038859013931066e+52,-1.727017497557045e+53
10.03584526,-1.4639998723385248e+53,-8.950401941490256e+52,-1.7098339247507033e+53
10.0408446,-1.4493680179141097e+53,-8.862801960250765e+52,-1.692820207303427e+53
10.0458439,-1.4348795412066715e+53,-8.77605107327018e+52,-1.6759746803167646e+53
10.05084343,-1.4205330931037528e+53,-8.690141356079189e+52,-1.6592956957791383e+53
10.05584273,-1.4063273369446774e+53,-8.60506495601501e+52,-1.642781622383588e+53
10.06084183,-1.3922609483981996e+53,-8.520814091558561e+52,-1.626430845346709e+53
10.06584119,-1.3783326153413943e+53,-8.43738105167532e+52,-1.6102417662288026e+53
10.07084033,-1.3645410377397892e+53,-8.354758195159838e+52,-1.5942128027552703e+53
10.07583946,-1.3508849275287288e+53,-8.2729379499839e+52,-1.5783423886392723e+53
10.08083946,-1.3373630084959448e+53,-8.191912812648323e+52,-1.5626289734056652e+53
10.08583856,-1.3239740161652965e+53,-8.111675347538379e+52,-1.547071022216247e+53
10.09083763,-1.310716697681647e+53,-8.032218186282909e+52,-1.531667015696325e+53
10.09583696,-1.2975898116968475e+53,-7.953534027117177e+52,-1.5164154497626352e+53
10.10083629,-1.284592128256812e+53,-7.875615634249488e+52,-1.5013148354526566e+53
10.10583632,-1.2717224286896543e+53,-7.798455837231704e+52,-1.4863636987553702e+53
10.11083569,-1.2589795054948677e+53,-7.722047530333742e+52,-1.471560580443508e+53
10.11583569,-1.24636216223353e+53,-7.646383671922161e+52,-1.4569040359073338e+53
10.12083526,-1.233869213419524e+53,-7.571457283842892e+52,-1.4423926349899977e+53
10.12583522,-1.2214994844117747e+53,-7.497261450808169e+52,-1.4280249618245149e+53
10.13083519,-1.2092518113075178e+53,-7.423789319787782e+52,-1.4137996146724161e+53
10.13583476,-1.197125040836609e+53,-7.351034099404737e+52,-1.399715205764104e+53
10.14083476,-1.1851180302568738e+53,-7.27898905933546e+52,-1.3857703611409535e+53
10.14583479,-1.1732296472504984e+53,-7.207647529714585e+52,-1.3719637204991886e+53
10.15083482,-1.1614587698214585e+53,-7.137002900544355e+52,-1.3582939370355645e+53
10.15583485,-1.1498042861939934e+53,-7.06704862110868e+52,-1.344759677294875e+53
10.16083485,-1.1382650947121225e+53,-6.997778199391809e+52,-1.3313596210192993e+53
10.16583485,-1.126840103740209e+53,-6.929185201501681e+52,-1.3180924609995897e+53
10.17083482,-1.1155282315645814e+53,-6.861263251098075e+52,-1.3049569029281053e+53
10.17583482,-1.104328406296223e+53,-6.794006028825603e+52,-1.2919516652537107e+53
10.18083515,-1.0932395657745295e+53,-6.72740727175164e+52,-1.2790754790385443e+53
10.18583519,-1.0822606574721338e+53,-6.66146077280929e+52,-1.2663270878166544e+53
10.19083585,-1.0713906384007842e+53,-6.596160380245494e+52,-1.253705247454484e+53
10.19583652,-1.0606284750182648e+53,-6.531499997074362e+52,-1.2412087260131804e+53
10.20083695,-1.0499731431363564e+53,-6.467473580535838e+52,-1.2288363036127169e+53
10.20583762,-1.0394236278298428e+53,-6.404075141559761e+52,-1.2165867722977945e+53
