Time (s),X (m/s^2),Y (m/s^2),Z (m/s^2)
6.004921667,0.3364980354756917,-0.30683481880415203,0.33971275224783504
6.014847667,0.2816053733636206,-0.9292934224824646,0.3382208016821219
6.024774667,0.22701968103777614,-1.543945453471157,0.3347294995479003
6.034700667,0.17282820510033553,-2.1456501817225218,0.32923684697211153
6.044627667,0.11908482611330042,-2.7294010723425832,0.3217476434171961
6.054554667,0.06580961942285003,-3.290388699344879,0.31227366909708587
6.064480667,0.012989129967411098,-3.8240607558203252,0.3008339203845854
6.074407667,-0.03942259973005998,-4.326178183685784,0.28745488056805646
6.084333667,-0.09150221965270759,-4.7928665535305415,0.272170811387732
6.094260667,-0.14335447325718884,-5.220661951904929,0.2550240593931227
6.104186667,-0.19510883118036862,-5.6065507689162635,0.2360653800134468
6.114113667,-0.24691540823599872,-5.948002912154033,0.21535428438968957
6.124039667,-0.2989402363046362,-6.242998097793611,0.19295940780287016
6.133966667,-0.35135998067111107,-6.490044986724618,0.1689588890873043
6.143892667,-0.4043561985672062,-6.688193045594978,0.14344074469568055
6.153819667,-0.4581092486257927,-6.8370371205759355,0.11650322225507379
6.163746667,-0.5127919684541115,-6.936714813776054,0.08825512463010625
6.173672667,-0.5685632434461078,-6.987896846822791,0.05881610234615539
6.183599667,-0.6255615931612549,-6.991770683022661,0.02831691598460508
6.193525667,-0.6838989030443862,-6.950017759651786,-0.003100330939674253
6.203452667,-0.7436544297916421,-6.864784756034168,-0.03528199408076918
6.213378667,-0.8048692081825857,-6.7386493908992335,-0.06806274064430343
6.223305667,-0.8675409846527453,-6.574581303077751,-0.10126547963243236
6.233231667,-0.931619796933575,-6.375898621691042,-0.1347014104225988
6.243158667,-0.9970043090045201,-6.146220874604195,-0.16817024099530223
6.253084667,-1.0635389968153945,-5.889418916415906,-0.20146063241084544
6.263011667,-1.1310122640654487,-5.60956257941592,-0.23435092255645454
6.272938667,-1.1991555500596955,-5.310866762897448,-0.26661016875432353
6.282864667,-1.2676434738635678,-4.997636678459778,-0.29799952828646786
6.292791667,-1.3360950405933494,-4.674212962245097,-0.3282739735595383
6.302717667,-1.4040759166695091,-4.344917350177784,-0.3571843193277217
6.312644667,-1.4711017615547628,-4.013999589587005,-0.38447952542703073
6.322570667,-1.5366425844691964,-3.6855862300330045,-0.40990922992191414
6.332497667,-1.6001280763083823,-3.363631897575428,-0.4332264635769679
6.342423667,-1.660953849719999,-3.05187361030132,-0.45419049625503594
6.352350667,-1.718488504065946,-2.753788639379512,-0.4725697684460267
6.362276667,-1.7720814168565624,-2.4725563604090204,-0.48814486585248196
6.372203667,-1.8210711493731067,-2.211024475886747,-0.5007115008473828
6.382130667,-1.864794341939349,-1.9716799229121713,-0.51008347060338
6.392056667,-1.9025949641647248,-1.7566247124950092,-0.516095566646992
6.401983667,-1.9338337780955939,-1.5675568797017494,-0.5186064133481102
6.411909667,-1.9578978682052943,-1.4057566588724681,-0.5175012123198369
6.421836667,-1.9742100918386671,-1.272077936388345,-0.5126943653593787
6.431762667,-1.9822383068115768,-1.1669449754558923,-0.5041319411229895
6.441689667,-1.9815042385041182,-1.0903543529065591,-0.491793942205476
6.451615667,-1.9715918559948507,-1.041881996604533,-0.47569632211669033
6.461542667,-1.9521551348831752,-1.0206951634001626,-0.4558926974163391
6.471468667,-1.922925093174559,-1.0255691516314398,-0.4324756989372099
6.481395667,-1.8837159959041188,-1.0549084989233213,-0.4055779059318718
6.491322667,-1.8344306338961924,-1.106772375152409,-0.3753723058908929
6.501248667,-1.775064591801773,-1.1789038415061484,-0.34207221969614887
6.511175667,-1.7057094298924802,-1.2687626095652291,-0.3059306282463399
6.521101667,-1.626554713008643,-1.3735609000504743,-0.267238836385665
6.531028667,-1.5378888291359956,-1.4903019705189682,-0.22632441655506302
6.540954667,-1.4400985501076597,-1.6158208556387341,-0.1835483897701645
6.550881667,-1.3336672983857716,-1.746826842383416,-0.13930162459401713
6.560807667,-1.2191720968942577,-1.8799471843896094,-0.09400046347292662
6.570734667,-1.0972791935675792,-2.011771543830848,-0.04808161752301491
6.580660667,-0.9687383690277318,-2.1388966356516432,-0.001996403288542738
6.590587667,-0.8343759551548124,-2.2579705392930642,0.04379557371274408
6.600513667,-0.695086614836752,-2.3657361392004645,0.08883315529289158
6.610440667,-0.5518239594908578,-2.4590731595356554,0.13266062933963052
6.620367667,-0.405590111738599,-2.5350382725405503,0.17483481660515487
6.630293667,-0.2574243560139994,-2.590902785598756,0.21493206483462385
6.640220667,-0.10839105807184032,-2.624187450024686,0.25255497718826886
6.650146667,0.040432929176777,-2.632693983743033,0.2873387230731587
6.660073667,0.18797112705826552,-2.6145329567663618,0.3189568084000283
6.669999667,0.3331602959919242,-2.5681477483328115,0.34712621114464165
6.679926667,0.474963036019091,-2.492334344103052,0.371611812286266
6.689852667,0.6123798643425702,-2.3862567984448395,0.3922300716398054
6.699779667,0.7444605324392641,-2.249458239019367,0.4088519146029417
6.709705667,0.8703143767045304,-2.0818673383852517,0.42140481036156824
6.719632667,0.9891195352994686,-1.8838002215310643,0.429874034214736
6.729559667,1.100130906668012,-1.6559578215846982,0.43430311539941624
6.739485667,1.202686769098444,-1.39941874077067,0.4347934764265319
6.749412667,1.29621402325659,-1.1156277212401484,0.4315032708520922
6.759338667,1.3802320587749597,-0.806379880528898,0.4246454255126157
6.769265667,1.454355280153015,-0.47380091794167345,0.41448489357468044
6.779191667,1.5182943554412125,-0.12032354960433667,0.4013351289849735
6.789118667,1.5718562730159114,0.25133952028341827,0.38555380211318035
6.799044667,1.6149433069647603,0.6382257381674294,0.3675377898026513
6.808971667,1.6475510001048732,1.0371555555896166,0.34771748894448795
6.818897667,1.669765275831592,1.444767572983228,0.32655051920145717
6.828824667,1.6817587867627561,1.8575555238666566,0.30451489592742814
6.838751667,1.6837866006640494,2.2719066372314716,0.2821017671082635
6.848677667,1.676181313705873,2.6841409105958096,0.25980781722645896
6.858604667,1.659347669283315,3.090550827363062,0.23812744637046002
6.868530667,1.6337567491638951,3.487441058964535,0.21754483588990312
6.878457667,1.5999397939565734,3.871167704581239,0.19852601399189737
6.888383667,1.5584817023116637,4.238176639014241,0.18151103681805852
6.898310667,1.5100142526068638,4.585040562248918,0.1669064027921159
6.908236667,1.4552090866800331,4.90849437190341,0.15507781984455718
6.918163667,1.3947704922892075,5.205468511411576,0.1463434457343835
6.928089667,1.329428019782407,5.473119981740423,0.1409677204027596
6.938016667,1.259928969582024,5.708860741813997,0.13915590574566084
6.947943667,1.187030790983585,5.91038326159515,0.1410494424103735
6.957869667,1.1114934393813924,6.075683030953304,0.1467222254172059
6.967796667,1.0340717477489318,6.203077866210793,0.1561778906988593
6.977721792,0.9555078779670021,6.291223894075342,0.1693481928864111
6.987648792,0.8765239271406585,6.339128129199725,0.18609254044395387
6.997574792,0.797814772200489,6.34615759664139,0.2061987370611562
7.007501792,0.7200412420256964,6.312044983876841,0.2293849577164807
7.017427792,0.6438237097028591,6.236890838687706,0.2553029640764492
7.027354792,0.5697361984001273,6.121162359190276,0.28354253744313584
7.037280792,0.4983010930123343,5.965688850610285,0.3136370793197181
7.047207792,0.42998454663716135,5.771653950233322,0.34507030119508325
7.057133792,0.36519266640372616,5.540584747356674,0.37728389778625404
7.067060792,0.30426855722169033,5.274337948816,0.40968607284103953
7.076987792,0.24749029426487662,4.975083261970245,0.44166076423089795
7.086913792,0.19506988473833317,4.645284184367657,0.47257739546875355
7.096840792,0.1471532659139597,4.287676400526301,0.5018009638062897
7.106766792,0.1038213689142191,3.905243989186494,0.5287022607594192
7.116693792,0.06509225587682525,3.5011936381841737,0.5526680097473965
7.126619792,0.03092431177624184,3.0789270506761777,0.5731106983614654
7.136546792,0.0012204413072545055,2.6420117106698116,0.5894778808738409
7.146472792,-0.02416681389957383,2.1941501635004097,0.6012607319177096
7.156399792,-0.04542936079794173,1.7391479621580335,0.6080016476396625
7.166325792,-0.06279700491424918,1.2808804343786546,0.6093007190784644
7.176252792,-0.07653046045455171,0.8232584374212941,0.6048209454221187
7.186178792,-0.08691413956369254,0.370193286175489,0.5942921097674313
7.196105792,-0.0942489489125413,-0.07443893558385155,0.5775133006669521
7.206032792,-0.09884531659655013,-0.5068334426857459,0.5543541208583737
7.215958792,-0.10101665535642912,-0.9232929255627628,0.5247546729264606
7.225885792,-0.10107344268725242,-1.320263534647084,0.4887244457324829
7.235811792,-0.09931806746475032,-1.6943703364441398,0.44634024374541936
7.245738792,-0.09604055861544071,-2.042451872569509,0.39774330543399994
7.255664792,-0.09151527562661123,-2.3615934226594573,0.3431357513016405
7.265591792,-0.0859986041517317,-2.649158547215039,0.28277649404836447
7.275517792,-0.07972766294287152,-2.9028184706051623,0.21697673969862064
7.285444792,-0.0729199906703315,-3.120578860945012,0.14609521309581205
7.295370792,-0.06577414243506235,-3.3008035748410505,0.07053325238444136
7.305297792,-0.05847108653166692,-3.442234962080794,-0.009270072739620104
7.315224792,-0.05117625533047868,-3.5440103671618006,-0.0928426671467189
7.325150792,-0.04404207480782532,-3.6056745176887497,-0.17968381430538713
7.335077792,-0.037210778953134994,-3.6271875490453027,-0.26926819833575233
7.345003792,-0.030817308690650955,-3.6089284751488293,-0.3610495185356616
7.354930792,-0.024992098885162232,-3.551693973727764,-0.454463715447684
7.364856792,-0.01986357116101592,-3.4566924134351793,-0.548931851471066
7.374783792,-0.015560176097518122,-3.3255331147248497,-0.64386269314572
7.384709792,-0.012211866402861635,-3.160210909693417,-0.738655035889605
7.394636792,-0.009950929052702485,-2.963086143127127,-0.8326998054923548
7.404562792,-0.008912151000811575,-2.7368603271187557,-0.9253819703668513
7.414489792,-0.009232331886053869,-2.4845477162872034,-1.0160823057443549
7.424415792,-0.0110491843477618,-2.209443109128958,-1.1041790631151884
7.434342792,-0.014499678973581433,-1.9150862096873016,-1.1890496111721516
7.444269792,-0.01971789976760089,-1.6052229109966745,-1.2700721251340443
7.454195792,-0.026832480528070385,-1.2837638935367,-1.346627408092728
7.464122792,-0.035963694617811376,-0.9547409693409937,-1.4181009303396117
7.474048792,-0.047220271178800795,-0.6222616421055117,-1.4838851705945022
7.483975792,-0.060696010627024365,-0.29046238979645805,-1.5433823377778126
7.493901792,-0.07646627245420108,0.03653879656988169,-1.5960075446216393
7.503828792,-0.09458441015500853,0.3546900687215262,-1.6411924945437977
7.513754792,-0.11507823175930187,0.6600530175228418,-1.67838972850351
7.523681792,-0.1379465689663313,0.9488490594051635,-1.7070774569919323
7.533607792,-0.1631560415564615,1.2175043709433393,-1.7267649744028308
7.543534792,-0.19063810522760585,1.462692841793481,-1.7369986219009605
7.553460792,-0.22028646993652384,1.6813765314695324,-1.7373682343927062
7.563387792,-0.25195497296499025,1.8708431347051733,-1.7275139799127759
7.573314792,-0.28545598758344687,2.0287399845557004,-1.7071334762989763
7.583240792,-0.3205594454742749,2.153104152633319,-1.6759890496061505
7.593167792,-0.3569925492279831,2.2423882419848646,-1.633914980394683
7.603093792,-0.394440249134765,2.295481509750322,-1.5808245680779776
7.613020792,-0.4325465539755806,2.3117260034432587,-1.5167168313908663
7.622946792,-0.4709167362543619,2.2909274460817914,-1.4416826562019824
7.632873792,-0.5091204769159572,2.2333606610774774,-1.3559102006630477
7.642799792,-0.5466959730992111,2.139769387354361,-1.2596893712423238
7.652726792,-0.5831550061104731,2.011360398244526,-1.1534151903608925
7.662652792,-0.6179889373351456,1.8497919037865933,-1.0375898865854751
7.672579792,-0.6506755689604725,1.6571562842636256,-0.912823552264142
7.682505792,-0.680686775699682,1.435957272005071,-0.7798332326010088
7.692432792,-0.7074967846969096,1.1890817676403589,-0.6394403355760448
7.702359792,-0.7305909549692343,0.919766545509295,-0.4925662835936994
7.712285792,-0.7494748863074067,0.6315601704156777,-0.34022636383914673
7.722212792,-0.7636836710817586,0.32828051400090724,-0.1835217732510306
7.732138792,-0.7727910909800308,0.013968323416937807,-0.02362989425264093
7.742065792,-0.7764185544833758,-0.30716264252586684,0.13820712235326046
7.751991792,-0.7742435704151251,-0.6307783344086617,0.3006953516923283
7.761918792,-0.766007558935033,-0.952479358464085,0.46250351318254246
7.771844792,-0.7515228141303124,-1.2678574648746497,0.6222786241711474
7.781771792,-0.730678450772915,-1.572552851508917,0.7786626662126729
7.791697792,-0.7034451894985626,-1.8623115226011857,0.9303100095240642
7.801624792,-0.6698788573066053,-2.1330419185314438,1.0759053121820583
7.811550792,-0.6301225031117441,-2.380870020733932,1.2141815857081852
7.821477792,-0.584407051861077,-2.6021921357649394,1.3439380989778198
7.831404792,-0.5330504463084409,-2.7937245758910954,1.464057779010257
7.841330792,-0.47645525270303507,-2.9525494812436466,1.5735237613372823
7.851257792,-0.4151047344911367,-3.0761560710663804,1.6714347453465859
7.861183792,-0.3495574263194174,-3.162476668795076,1.757018821797061
7.871110792,-0.2804402701744024,-3.2099169173365505,1.8296454607979513
7.881036792,-0.20844040793249616,-3.2173796863313973,1.8888353792036083
7.890963792,-0.13429575999872628,-3.184282271075575,1.9342680467833555
7.900889792,-0.05878455539299111,-3.1105665913069616,1.9657866400249975
7.910816792,0.017285989957917938,-2.996702215526199,1.9834003092096446
7.920742792,0.09309162707970967,-2.843682161240186,1.9872836859984457
7.930669792,0.16780342818015204,-2.6530115504307137,1.9777736226891895
7.940595792,0.24060030762826484,-2.4266893270236998,1.9553632179634843
7.950522792,0.3106814815094831,-2.1671833618735636,1.9206932444100628
7.960449792,0.37727864598804,-1.877399374506559,1.8745411473551172
7.970375792,0.4396676626538106,-1.560644186505907,1.8178078306269085
7.9803075,0.4971795457774079,-1.2205838892424061,1.7515024828917474
7.9902335,0.5492105539857096,-0.8611975608700086,1.6767257295709268
8.0001605,0.5952312007086099,-0.48672720663124724,1.594651421307534
8.0100865,0.6347940166153283,-0.10162462437965976,1.5065073905551178
8.0200135,0.6675399238366708,0.2895040851675103,1.4135555224405272
8.0299395,0.6932031144701605,0.6819556358870099,1.317071494174825
8.0398665,0.7116143617444355,1.0709875743595378,1.2183245390940713
8.0497925,0.7227027281167236,1.4518764791373664,1.1185575873131455
8.0597195,0.7264956679419887,1.8199756348124312,1.0189681253004161
8.0696455,0.7231175517211434,2.170771492400647,0.9206901016203493
8.0795725,0.7127866640405608,2.4999382502619207,0.8247771857471935
8.0894985,0.6958107488050718,2.8033899180816797,0.7321876613025827
8.0994255,0.6725811943336716,3.077329261261634,0.6437712044724037
8.1093525,0.6435659684340279,3.318293065033974,0.5602577630517013
8.1192785,0.6093014304786281,3.5231932069236107,0.4822487120846916
8.1292055,0.5703831639946744,3.689353082622654,0.41021041909589073
8.1391315,0.5274559889898296,3.8145389933210816,0.34447030624000996
8.1490585,0.4812033274546198,3.896986171163723,0.2852154492245913
8.1589845,0.43233610747446516,3.935419192687264,0.2324937046010076
8.1689115,0.38158140060571355,3.929066606599453,0.18621730913444995
8.1788375,0.32967099332225275,3.8776696806196176,0.14616884867886795
8.1887645,0.2773300962875008,3.7814852503687453,0.11200945046482992
8.1986905,0.2252663947894146,3.6412827289317486,0.08328901295387688
8.2086175,0.1741596395179502,3.4583354056749864,0.05945825219904587
8.2185435,0.12465196831871794,3.2344062241052005,0.03988231346396556
8.2284705,0.07733913581324538,2.971728278569377,0.023855671738338028
8.2383965,0.032762808116696546,2.6729803074864584,0.010618024287295353
8.2483235,-0.008595945983685634,2.341257487861208,-0.0006291381995124732
8.2582505,-0.04632186775315083,1.980037855518673,-0.010705608289612258
8.2681765,-0.08006936215676612,1.5931446922236308,-0.02043552175262003
8.2781035,-0.10956496966258757,1.184705238227437,-0.030630739934141372
8.2880295,-0.1346084752680184,0.7591061085836688,-0.042074890204983124
8.2979565,-0.15507271447586246,0.3209458138262453,-0.05550838696218897
8.3078825,-0.17090217199209706,-0.12501519066288186,-0.07161473067678048
8.3178095,-0.18211049741511834,-0.573906478318341,-0.09100834476838068
8.3277355,-0.1887770820362403,-1.020801176672103,-0.11422416078481282
8.3376625,-0.19104285304805987,-1.4607705509736484,-0.14170910478222215
8.3475885,-0.1891054479090544,-1.888939132164826,-0.17381557675268106
8.3575155,-0.1832139337768742,-2.3005398552538106,-0.21079695561793846
8.3674415,-0.17366323488755264,-2.6909686546207054,-0.25280510885892465
8.3773685,-0.16078842348183692,-3.055837943994087,-0.2998898402253137
8.3872955,-0.1449590162341176,-3.3910283918073425,-0.3520001705900379
8.3972215,-0.12657339800837034,-3.6927383891557133,-0.40898731359397855
8.4071485,-0.10605346937652646,-3.957530599836823,-0.47060917707160993
8.4170745,-0.08383958557722515,-4.182374982280778,-0.5365361932657351
8.4270015,-0.06038582399133383,-4.364687683919989,-0.6063582577760457
8.4369275,-0.036155585701956185,-4.502365232282705,-0.6795925415405264
8.4468545,-0.011617505581624495,-4.59381348621645,-0.7556919334269447
8.4567805,0.012758382853680883,-4.63797086594959,-0.834053875204013
8.4667075,0.036504303695471536,-4.634325449969845,-0.9140293687749926
8.4766335,0.05915830594795703,-4.582925604965875,-0.9949319683945087
8.4865605,0.08026783826308709,-4.484383896645467,-1.0760466135087645
8.4964865,0.09939342764963029,-4.33987411061177,-1.1566382020266268
8.5064135,0.11611255214125478,-4.151121294838167,-1.235959840603246
8.5163395,0.130023780487186,-3.9203848242497306,-1.313260732444726
8.5262665,0.14075122054714956,-3.650434588609532,-1.3877936725088718
8.5361935,0.14794927298037464,-3.3445205150678876,-1.4588221175052103
8.5461195,0.15130763631110422,-3.006335745443298,-1.5256267917611848
8.5560465,0.15055646531770253,-2.639973883550238,-1.5875117901663187
8.5659725,0.14547155454662877,-2.2498808052866908,-1.6438101521480692
8.5758995,0.13587940268776538,-1.8408015875030619,-1.693888903874445
8.5858255,0.12166200759945063,-1.4177231668066874,-1.7371535919303058
8.5957525,0.10276124277374683,-0.9858133901934611,-1.7730523529152151
8.6056785,0.07918267282925251,-0.5503571673683043,-1.8010795756103772
8.6156055,0.05099867746968103,-0.11669048030581117,-1.820779215416381
8.6255315,0.018350768758048103,0.3098669516860333,-1.831747817519273
8.6354585,-0.01854899636428988,0.7240795156734101,-1.8336372996011385
8.6453845,-0.05941758906931223,1.1208631930893578,-1.826157539444916
8.6553115,-0.1039016308518389,1.4953518107918746,-1.8090788074789639
8.6652375,-0.15157911143116348,1.842961171105908,-1.7822340774177532
8.6751645,-0.2019622303254852,2.1594501878246684,-1.745521238052874
8.6850915,-0.25450136930923034,2.4409781791973835,-1.6989052156006552
8.6950175,-0.308590179725409,2.68415750509375,-1.6424199998425302
8.7049445,-0.36357174390122127,2.8861007833082963,-1.5761705503948105
8.7148705,-0.41874574559174366,3.0444619790090743,-1.5003345435736593
8.7247975,-0.47337656264402916,3.157470731235952,-1.415163906515005
8.7347235,-0.5267021778430091,3.223959360579494,-1.3209860734874683
8.7446505,-0.5779437922859119,3.2433820920205845,-1.2182048887719685
8.7545765,-0.6263160193973201,3.21582612542721,-1.107301069591685
8.7645035,-0.6710375349292905,3.1420142920566043,-0.9888321302941518
8.7744295,-0.7113420559681684,3.0232991467966506,-0.8634316560643868
8.7843565,-0.7464895174649954,2.861648460644878,-0.7318078040762761
8.7942825,-0.7757773071224144,2.6596221940211637,-0.5947409065901698
8.8042095,-0.7985514091368072,2.4203411476749626,-0.45308005736096557
