Time (s),Acceleration x (m/s^2),Acceleration y (m/s^2),Acceleration z (m/s^2)
9.000013652,1.6856218824922204,-0.591587630595019,-1.0909442678574985
9.002013685,1.6169265991876967,-0.8256472960520918,-0.9743533658826671
9.004013718,1.544955483970203,-1.0593010389025757,-0.8533338402693628
9.006013718,1.469597557528038,-1.2917856489841264,-0.7280674398169102
9.008014118,1.3907544957463664,-1.5223475569527332,-0.598761191774992
9.010014118,1.308342744103879,-1.7502472506112468,-0.46564766029262494
9.012014118,1.22229555197995,-1.974763532157231,-0.3289850603793569
9.014014118,1.132564900674798,-2.19519757950617,-0.1890572168718751
9.016014384,1.0391232995813577,-2.410876777118531,-0.04617335772810703
9.018014384,0.9419654258484444,-2.621158284394857,0.0993322690095468
9.02001435,0.8411095840418161,-2.8254323127040406,0.2471009649822135
9.022014316,0.7365989637613288,-3.0231250854393603,0.3967503478748333
9.024014282,0.6285026749317945,-3.2137014590969812,0.5478753233752651
9.026013648,0.5169165425670758,-3.396667187196475,0.7000492705510338
9.028013614,0.4019636452109985,-3.57157081288507,0.8528254469394803
9.03001358,0.283794583969434,-3.7380051802600462,1.005738617799871
9.032013546,0.1625874720370092,-3.8956085587622566,1.1583069118281426
9.034013512,0.03854763784954528,-4.044065379375922,1.3100339032203225
9.036013512,-0.088092961587088,-4.18310658575138,1.460410917328009
9.038013545,-0.2170766170749458,-4.312509607690913,1.608919554314288
9.040013578,-0.3481210295221509,-4.432097968648065,1.7550344222207637
9.042013611,-0.4809207506493292,-4.541740542929981,1.8982260677233147
9.044013644,-0.6151488908726385,-4.641350482102686,2.0379640896159446
9.046013677,-0.7504590794854493,-4.730883833627255,2.1737204167539463
9.04801371,-0.8864876587565426,-4.8103378779460435,2.304972728850142
9.050013743,-1.0228560902619788,-4.879749213035142,2.4312079951947507
9.052013743,-1.1591735487126285,-4.939191617789206,2.551926103101366
9.054013709,-1.2950396757544098,-4.988773727465536,2.666643544707372
9.056013142,-1.4300474637370597,-5.028636555751171,2.7748971277232473
9.058013108,-1.5637862373214364,-5.058950898801456,2.876247672885465
9.060013074,-1.6958446990681728,-5.079914656814409,2.9702836582677317
9.06201304,-1.8258140038386002,-5.091750108353684,3.056624768278237
9.064013006,-1.9532908259491288,-5.094701171729112,3.134925303165758
9.066013006,-2.0778803825754415,-5.0890306863069625,3.2048774032795695
9.068013006,-2.199199376950723,-5.075017744674515,3.266214041343671
9.070013039,-2.316878825503309,-5.052955104162408,3.3187117358089657
9.072013072,-2.430566734284404,-5.02314670339156,3.362192939122619
9.074013105,-2.539930591878251,-4.985905306331921,3.396528056669408
9.076012871,-2.6446596484892346,-4.941550292917266,3.421637055352868
9.078012904,-2.7444669540821387,-4.890405611638524,3.4374906254295667
9.080012937,-2.8390911323024253,-4.832797905826041,3.4441108653452743
9.08201297,-2.9282978713492205,-4.769054821615535,3.4415714668588637
9.08401297,-3.011881117874486,-4.699503501958132,3.4299973864382514
9.08601297,-3.089663965156987,-4.624469267563041,3.409563998435365
9.08801297,-3.16149923204934,-4.5442744824242975,3.3804957355052094
9.09001297,-3.2272697343236496,-4.459237598639006,3.3430642317161743
9.09201297,-3.2868882548869864,-4.369672372621622,3.297585993412717
9.09401297,-3.34029722380108,-4.275887242598108,3.2444196318004788
9.09601297,-3.387468123058029,-4.178184855455123,3.183962699143298
9.098012936,-3.4284006345760356,-4.076861729629933,3.116648177139299
9.100012902,-3.463121552826671,-3.972208039736348,3.0429406712798377
9.102012868,-3.4916834858578523,-3.864507507989995,2.9633323687070514
9.104012834,-3.514163370254097,-3.75403738717276,2.878338819305736
9.1060128,-3.5306608268300583,-3.64106851981437,2.7884946005417865
9.108012766,-3.5412963846400745,-3.5258654584340285,2.6943489258972844
9.110012732,-3.546209601248698,-3.4086866320543368,2.596461254682221
9.112012698,-3.5455571071753655,-3.2897845447580063,2.495396957659085
9.114012698,-3.5395106020174585,-3.1694059927883576,2.3917230885201426
9.116012731,-3.5282548289709768,-3.0477922875728685,2.2860043060617667
9.118012764,-3.511985553295704,-2.925179473044285,2.1787989861669272
9.120012797,-3.490907568709093,-2.8017985267191565,2.070655556691124
9.12201283,-3.465232753771442,-2.6778755351536816,1.9621090822725886
9.12401243,-3.4351781981167138,-2.5536318356220518,1.8536781201282757
9.126012463,-3.400964415986562,-2.429284117138157,1.7458618621766835
9.128012496,-3.3628136620455202,-2.305044475244232,1.639137573431883
9.130012496,-3.3209483619916473,-2.181120416296004,1.533958331596791
9.132012462,-3.2755896681073504,-2.0577148082653176,1.4307510681837414
9.134012428,-3.226956147670048,-1.935025776342534,1.3299149073367749
9.136012394,-3.175262610082617,-1.8132465428337192,1.2318197948606877
9.13801236,-3.1207190766805364,-1.6925652119940944,1.1368054068229687
9.140012326,-3.063529895398314,-1.5731645015071996,1.0451803245315194
9.142012292,-3.003893000803577,-1.455221423300298,0.9572214607323452
9.144012292,-2.9419993184148985,-1.3389069172724106,0.8731737205138645
9.146012292,-2.8780323107004517,-1.2243854422944032,0.7932498796132841
9.148012325,-2.8121676607095902,-1.1118145295152364,0.7176306625465588
9.150012358,-2.7445730879290546,-1.0013443035733862,0.6464650031701318
9.152012391,-2.6754082896946874,-0.8931169777749876,0.5798704708565149
9.154012424,-2.6048250003403344,-0.7872663296759588,0.5179338463324705
9.156012457,-2.53296715923679,-0.6839171638041558,0.4607118322820755
9.15801249,-2.4599711779729914,-0.5831847684757628,0.40823188495589774
9.160012523,-2.385966296162411,-0.4851743737936862,0.36049315417311123
9.162012523,-2.311075014713784,-0.38998061797573946,0.31746752021035457
9.164012523,-2.2354135948731444,-0.29768702916740525,0.2791007171194269
9.166012523,-2.15909261091113,-0.20836552986232965,0.24531353298978503
9.168012523,-2.082217543993057,-0.12207597098880903,0.21600307854813797
9.170012123,-2.0048894045383014,-0.03886570262810032,0.19104411624317502
9.172012123,-1.9272053702650287,0.041230811778492873,0.17029044258979326
9.174011456,-1.849259427140257,0.11819233099246801,0.15357631705167527
9.176011422,-1.7711430006271025,0.19201111469276017,0.1407179311353498
9.178010722,-1.6929455649582976,0.2626931388660284,0.1315149116576147
9.180010022,-1.614755218689273,0.33025824157227635,0.12575185233054012
9.182009988,-1.536659215513346,0.39474019300869834,0.12319986788758676
9.184010388,-1.4587444402622705,0.4561866840798205,0.12361816496688169
9.186009988,-1.3810978211565503,0.5146592280491348,0.1267556239054304
9.188009954,-1.3038066706803484,0.5702329703219713,0.1323523855255199
9.19000992,-1.226958948888263,0.6229964020181397,0.14014143695716205
9.19200992,-1.1506434444559317,0.6730509737548664,0.1498501905678795
9.194009953,-1.074949870324932,0.7205106069753295,0.16120205016940273
9.196009986,-0.9999688723384901,0.7655011012048656,0.17391795882975605
9.198010019,-0.9257919507923804,0.8081594367675572,0.1877179228249376
9.200010052,-0.8525112963060906,0.8486329737259015,0.20232250650305741
9.202010085,-0.780219542832345,0.8870785490940779,0.2174542930895921
9.204009918,-0.7090094419631374,0.9236614756989088,0.23283930672193529
9.206009951,-0.638973463951262,0.9585544474012628,0.24820839126193536
9.208009951,-0.5702033320235111,0.9919363567261783,0.2632985417043736
9.210009917,-0.5027894975798564,1.0239910322625965,0.27785418428547337
9.212009883,-0.4368205647264071,1.0549059044588112,0.2916284016988655
9.214009849,-0.3723826732696211,1.0848706096310432,0.3043841001406158
9.216009815,-0.30955884980301707,1.1140755430953155,0.3158951152227142
9.218009781,-0.2484283368429995,1.1427103733063746,0.32594725411082476
9.220009747,-0.18906591011934148,1.1709625297259947,0.33433927155303905
9.222009747,-0.13154119411358928,1.1990156778338772,0.3408837777669149
9.224009747,-0.07591798579106969,1.227048195225179,0.3454080764370805
9.226009747,-0.02225359621402256,1.2552316630991,0.3477549313413026
9.228009747,0.02940178062819032,1.2837293876278357,0.3477832603656868
9.230010147,0.07900566286754772,1.3126949657047469,0.3453687558843637
9.232010147,0.12652383127748348,1.3422709094086978,0.34040443065866743
9.234010813,0.17193082740320484,1.372587343194469,0.3328010885499068
9.236010813,0.21521039201778683,1.4037607873331825,0.3224877194377406
9.238011479,0.25635583721795907,1.4358930404874666,0.3094118177966947
9.240012145,0.29537034609350404,1.4690701735206735,0.2935396244111236
9.242012178,0.3322671945504699,1.5033616457158343,0.2748562907078681
9.244012211,0.3670698905396426,1.5388195535237785,0.25336596516038906
9.246012611,0.39981222662874033,1.5754780207734151,0.2290918011739178
9.248012644,0.43053824254935824,1.6133527379641097,0.20207588580546573
9.250012677,0.45930209504259245,1.6524406568290209,0.17237908861477363
9.25201271,0.48616783302129585,1.6927198448225576,0.14008082989347406
9.25401271,0.5112090767681718,1.7341495025598335,0.10527876749147819
9.256011776,0.5345086006083112,1.7766701455371778,0.06808840146294302
9.258011742,0.5561578192445787,1.8202039497121567,0.028642595798414015
9.260011708,0.5762561787310968,1.8646552587501595,-0.012908983398361943
9.262011641,0.5949104538819973,1.9099112489887433,-0.056400513787399915
9.264011807,0.6122339547646231,1.9558427464640982,-0.1016507470287201
9.266011773,0.6283456458065307,2.0023051887120977,-0.14846382344655604
9.268011739,0.6433691819536549,2.0491397225196097,-0.1966301709159024
9.270011739,0.6574318672487468,2.096174427377633,-0.2459274874550327
9.272011772,0.6706635421461766,2.1432256530902216,-0.2961218066554334
9.274011805,0.6831954068318535,2.190099458829889,-0.3469686446804798
9.276011838,0.6951587887647344,2.2365931399060948,-0.3982142271129905
9.278011871,0.7066838635839318,2.2824968276355455,-0.44959679343218684
9.280011904,0.7178983394138948,2.327595146980485,-0.5008479763595458
9.28201107,0.7289261154317309,2.371668916061665,-0.5516942527354783
9.284011103,0.7398859263200542,2.4144968712624597,-0.6018584619715631
9.286011703,0.7508899848991534,2.4558574014244257,-0.6510613874581315
9.288011703,0.7620426357928353,2.4955302745926002,-0.6990233955906712
9.290011703,0.7734390334102654,2.533298340894263,-0.7454661263162219
9.292011703,0.785163857804813,2.5689491954186527,-0.7901142283031881
9.294011703,0.7972900820931224,2.602276785403778,-0.8326971310143301
9.296011703,0.809877805079052,2.633082946635272,-0.872950845121023
9.298011703,0.8229731625206145,2.6611788547285604,-0.9106197818478945
9.300011703,0.8366073300989116,2.6863863778973163,-0.9454585809965762
9.302011669,0.8507956306020913,2.708539318894768,-0.9772339365834669
9.304011235,0.8655367571402935,2.7274845350330725,-1.0057264082543866
9.306011201,0.880812123377004,2.7430829265265544,-1.03073220591936
9.308011167,0.896585350809959,2.7552102848553237,-1.0520649343900774
9.310011133,0.9128019020662226,2.7637579943901205,-1.0695572842064034
9.312011099,0.9293888679965383,2.768633582133331,-1.083062654314967
9.314011065,0.9462549150739242,2.769761112088528,-1.0924566918254426
9.316011965,0.9632903982346899,2.7670814224489395,-1.0976387337358604
9.318011965,0.9803676428584006,2.7605522054761993,-1.098533135305408
9.320011998,0.9973413980738726,2.7501479316109,-1.0950904696758237
9.322012064,1.0140494620070517,2.735859621008584,-1.087288583408744
9.32401143,1.0303134779635679,2.7176944673278065,-1.0751334928221374
9.326011463,1.0459398988789341,2.695675320209225,-1.058660106381923
9.328011496,1.0607211156893845,2.669840034467077,-1.0379327589436353
9.330011529,1.0744367435908393,2.6402406955486946,-1.0130455443511601
9.332011529,1.0868550584769765,2.6069427322786853,-0.9841224337926571
9.334011495,1.0977345741992945,2.5700239292627995,-0.9513171683974374
9.336011461,1.1068257496972234,2.529573352553277,-0.9148129158437952
9.338011427,1.1138728135303333,2.485690203248305,-0.874821682248904
9.340011393,1.118615691929854,2.438482614595516,-0.8315834723368354
9.342012226,1.1207920251930201,2.3880664088845385,-0.785365192831551
9.344012192,1.1201392560925023,2.334563830943724,-0.7364592961947685
9.346011592,1.1163967729890154,2.278102275393554,-0.6851821642198103
9.348011592,1.10930808954246,2.218813024936473,-0.6318722335971375
9.350011625,1.0986230423334988,2.1568300168668033,-0.5768878683724634
9.352011658,1.0840999873426624,2.09228865466966,-0.5206049871991613
9.354011691,1.0655079760920523,2.025324681058703,-0.4634144564079896
9.356011724,1.0426288923379576,1.9560731280806956,-0.40571926313490747
9.358011757,1.0152595305137662,1.8846673589748693,-0.34793148600761054
9.36001179,0.9832135976626682,1.8112382153041942,-0.29046908413080724
9.362011823,0.9463236213638397,1.7359132814807856,-0.23375252826513096
9.364012123,0.9044427471300054,1.658816277211856,-0.17820130110426352
9.366012123,0.8574464099205327,1.5800665866207184,-0.1242302963602115
9.368012123,0.8052338657571128,1.4997789308674134,-0.0722461489072344
9.370012123,0.7477295709364916,1.4180631890174642,-0.022643530453705995
9.372012123,0.6848843979939117,1.3350243696944275,0.024198552937256406
9.374012123,0.6166766793659955,1.2507627337098735,0.06792042370880559
9.376012889,0.5431130716122629,1.1653740654029778,0.10818531727024523
9.378012889,0.4642292350529161,1.078950087864304,0.14468284872614876
9.380012855,0.3800903257304832,0.9915790146086604,0.17713232249145344
9.382012821,0.29079129865912906,0.9033462276606479,0.2052858458722143
9.384013454,0.19645702333418594,0.8143350694928218,0.22893120869148875
9.38601342,0.09724221437006425,0.7246277338844347,0.24789449259626026
9.388013386,-0.006668818159435049,0.6343062386263969,0.2620423758152721
9.390013352,-0.1150625926550484,0.5434534611608346,0.271284101858823
9.392013318,-0.22769704700944318,0.4521542167707628,0.27557308393794927
9.394013318,-0.3443022886133019,0.3604963578622926,0.27490812067713505
9.396013918,-0.46458149458746867,0.2685718722251123,0.2693342029361389
9.398013951,-0.5882119530335129,0.17647795792014723,0.25894289617652994
9.400013984,-0.7148462358566825,0.08431805261562693,0.2438722877250905
9.402014017,-0.8441134936473556,-0.007797204247929319,0.22430649339147782
9.40401405,-0.9756208631666163,-0.09974909716228209,0.20047472306973654
9.406014083,-1.1089549781390404,-0.19141006756488743,0.1726499100726935
9.408014116,-1.2436835742981236,-0.28264307202636624,0.14114691390388898
9.410014116,-1.3793571799470636,-0.37330108161413006,0.10632031086728093
9.412014082,-1.515510883670974,-0.4632267363142781,0.0685617912770452
9.414014048,-1.6516661712401903,-0.5522521660589759,0.028297186005177992
9.416014014,-1.7873328241563768,-0.6401989874086932,-0.014016851354102276
9.41801398,-1.9220108727014527,-0.7268784823358668,-0.05789647736610682
9.420013946,-2.0551925967464877,-0.8120919629052181,-0.10283457480866412
9.422013912,-2.186364567955227,-0.8956313229946308,-0.14830491800648546
9.424014012,-2.315009727364602,-0.9772797755917179,-0.19376655203077658
9.426014012,-2.440609492630788,-1.056812771677278,-0.23866834925489433
9.428014045,-2.5626458894794437,-1.1339990943106593,-0.2824537060331306
9.430014078,-2.680603702076503,-1.2086021193047705,-0.3245653418495628
9.432014111,-2.793972637126765,-1.2803812318544805,-0.36445016310608946
9.434014144,-2.9022494965003207,-1.3490933866806174,-0.40156415372910814
9.43601341,-3.0049403530741294,-1.4144947976757782,-0.43537725492403073
9.438013443,-3.101562724253401,-1.4763427416847281,-0.4653781966527945
9.440013476,-3.191647737299841,-1.5343974599160972,-0.4910792437184373
9.442013509,-3.274742280135277,-1.588424139549114,-0.5120208196956016
9.444013509,-3.350411130709845,-1.638194957346514,-0.5277759723472363
9.446013509,-3.418239057338189,-1.6834911664946766,-0.5379546446278969
9.448013509,-3.477832881646255,-1.7241052074580636,-0.542207715913184
9.450013509,-3.5288234949762733,-1.7598428233523091,-0.5402307787468953
9.452013509,-3.570867818309939,-1.790525160196492,-0.5317676172108914
9.454013509,-3.6036506950266443,-1.8159908323821743,-0.5166133540500183
9.456012909,-3.6268867051503513,-1.83609793377562,-0.4946172349722582
9.458012875,-3.6403218891922484,-1.850725975033512,-0.46568502013060636
9.460012841,-3.6437353692996624,-1.8597777279505139,-0.42978095470307665
9.462012807,-3.63694085519385,-1.8631809579634304,-0.38692929272315507
9.464012773,-3.6197880223237378,-1.8608900263062136,-0.3372153508528751
9.466013439,-3.5921637497736536,-1.8528873437387712,-0.28078607160043617
9.468012739,-3.553993205730298,-1.8391846582669287,-0.21785007853396718
9.470012705,-3.5052407687246094,-1.819824159851879,-0.14867720931509223
9.472012705,-3.4459107734061774,-1.7948793858044878,-0.07359751586678759
9.474012705,-3.376048070275722,-1.7644559114038514,0.007000275291841727
9.476012738,-3.2957383895977848,-1.728691811300651,0.09267084554861647
9.478012771,-3.2051085006517663,-1.6877578784950134,0.1829149083140489
9.480012804,-3.104326158570558,-1.6418575891488967,0.2771823690037526
9.482012837,-2.9935998322804567,-1.5912268032345613,0.3748760103123327
9.48401287,-2.8731782085104896,-1.536133193050273,0.4753556870550842
9.486012903,-2.7433494684906647,-1.476875393953583,0.5779430093685591
9.488012903,-2.6044403357977517,-1.4137818742655308,0.6819264872216058
9.490012903,-2.4568148958094485,-1.3472095241752884,0.7865671030144828
9.492012869,-2.3008731893581973,-1.2775419665994212,0.8911042726233452
9.494012835,-2.137049585388257,-1.205187596277666,0.9947621487302137
9.496012801,-1.9658109396548484,-1.130577356855454,1.0967562138473108
9.498012767,-1.7876545487025663,-1.0541622692355854,1.1963001042967845
9.500012733,-1.6031059104825462,-0.9764107279867187,1.2926126007414251
9.502012233,-1.4127163050004918,-0.8978055859788613,1.384924715864617
9.504012233,-1.2170602103248964,-0.8188410505862018,1.47248680563614
9.506012266,-1.0167325711060224,-0.7400194176716853,1.5545756274378169
9.508012299,-0.8123459384192515,-0.6618476720633679,1.6305012663258698
9.510012332,-0.6045275012024949,-0.5848339852799068,1.699613850018126
9.512012365,-0.39391603077062065,-0.5094841428241302,1.7613099738902545
9.514012398,-0.1811587608390293,-0.4362979344356845,1.8150387593482387
9.516012431,0.03309177383962962,-0.36576554128480415,1.8603074723730346
9.518012464,0.2481809167277228,-0.2983639542050523,1.896686633745189
9.520012497,0.4634550630148182,-0.23455345671537073,1.9238145583594686
9.522012497,0.6782648038716121,-0.17477420580415007,1.94140126799648
9.524012497,0.8919680182647797,-0.1194429422896782,1.9492317297610258
9.526012363,1.103932889705163,-0.0689498610804384,1.9471683809416929
9.528013029,1.3135408260636288,-0.02365566987731762,1.9351529100928568
9.530013029,1.5201892615547734,0.01611113716965641,1.91320727347245
9.532013029,1.7232943211488398,0.05005676657133516,1.8814339353732412
9.534013029,1.9222933290117572,0.07792435150082298,1.840015330160498
9.536012995,2.1166471440910715,0.09949589736591406,1.7892125527722884
9.538012961,2.305842307682593,0.11459393033411155,1.7293632928607083
9.540012927,2.4893929897418876,0.12308283502961692,1.6608790355299294
9.542012893,2.6668427228199283,0.12486987056570799,1.5842415587333711
9.544012426,2.837765914748213,0.11990585707875256,1.4999987638556285
9.546011726,3.0017691335221226,0.10818552793872097,1.4087598818447569
9.548011692,3.158492160184302,0.08974754577994978,1.3111901024771935
9.550011658,3.3076088078330854,0.06467418339619085,1.2080046789463939
9.552011658,3.4488275071075,0.03309067336409205,1.0999625640165673
9.554011691,3.5818916605815003,-0.0048357670022858255,0.9878596375416558
9.556011791,3.7065797704177856,-0.04889722610641379,0.8725215882819912
9.558011824,3.82270534538788,-0.09884669210127005,0.7547965157144529
9.560011857,3.9301165949705794,-0.1543999361813909,0.6355473199704236
9.562012357,4.028695919712949,-0.21523766842758363,0.5156439501644615
9.56401239,4.118359208398926,-0.28100794720974953,0.3959555831683381
9.56601239,4.1990549538326505,-0.35132882098483903,0.27734280627270563
