Time (s),Acceleration x (m/s^2),Acceleration y (m/s^2),Acceleration z (m/s^2)
10.00297146,8.391629219,-7.496713161,-1.256231904
10.00772687,8.793622971,-7.728816986,-1.019342422
10.01248224,9.226723671,-8.003992081,-0.7992027402
10.0172376,9.568898201,-8.33180809,-0.626919508
10.02199297,9.772287369,-8.767302513,-0.6388836503
10.02674839,9.760323524,-9.269794464,-0.8087740541
10.03150375,9.609575272,-9.745966911,-0.8997012973
10.03625911,9.343972206,-10.2149601,-0.8542376757
10.04101448,8.989834785,-10.66959572,-0.7944171429
10.0457699,8.571090698,-11.00459099,-0.8015955687
10.05052526,8.149953842,-11.23430252,-0.8853443861
10.05528062,7.838887215,-11.3635149,-1.024128079
10.06003599,7.554141045,-11.33719349,-1.229910851
10.06479141,7.281359196,-11.1433754,-1.459621787
10.06954677,7.118647575,-10.83709335,-1.619940877
10.07430214,7.113861561,-10.33699417,-1.605584025
10.0790575,7.30768013,-9.762716293,-1.505085468
10.08381292,7.60678339,-9.188439369,-1.337587833
10.08856828,8.102097511,-8.638090134,-1.225125194
10.09332364,8.580661774,-8.15473938,-1.13419795
10.09807901,9.066405296,-7.668996811,-1.067198873
10.10283443,9.559326172,-7.334001541,-1.043270707
10.10758979,10.07856941,-7.149754047,-1.012163997
10.11234516,10.62173939,-7.140182972,-0.9954141974
10.11710057,11.22951698,-7.305287361,-1.014556766
10.12185594,11.79183006,-7.575676441,-1.122233868
10.1266113,12.22253799,-7.831708431,-1.21555388
10.13136667,12.5120697,-8.202595711,-1.26341033
10.13612208,12.63171101,-8.523234367,-1.272981644
10.14087745,12.67238903,-8.807980537,-1.253839016
10.14563281,12.57188988,-9.049654961,-1.170090318
10.15038818,12.39482117,-9.188439369,-1.079162955
10.15514359,12.19621658,-9.312865257,-0.9882357717
10.15989896,11.98325539,-9.387042999,-0.9355936646
10.16465432,11.76311588,-9.396614075,-0.9260223508
10.16940974,11.5764761,-9.406186104,-0.94277215
10.1741651,11.45683479,-9.348757744,-1.024128079
10.17892047,11.28933716,-9.260223389,-1.203589797
10.18367583,11.10987568,-9.147761345,-1.428515077
10.1884312,10.93759251,-9.011369705,-1.715653777
10.19318661,10.6983099,-8.851051331,-2.084148407
10.19794198,10.47099209,-8.69551754,-2.478964329
10.20269734,10.20060253,-8.604590416,-2.861815929
10.20745276,9.987641335,-8.585447311,-3.170490026
10.21220812,9.915857315,-8.611768723,-3.452843189
10.21696349,9.903892517,-8.676374435,-3.704089403
10.22171885,9.901499748,-8.798408508,-3.871587038
10.22647427,9.903892517,-8.894122124,-3.778266907
10.23122964,9.808179855,-8.970691681,-3.522234917
10.235985,9.69811058,-9.011369705,-3.144168854
10.24074036,9.454042435,-9.004191399,-2.773281336
10.24549578,9.154939651,-9.011369705,-2.404786825
10.25025114,8.786444664,-8.95154953,-2.06261301
10.25500651,8.202595711,-8.829515457,-1.842473388
10.25976193,7.420143127,-8.702695847,-1.658226132
10.26451729,6.501298904,-8.523234367,-1.495514154
10.26927266,5.673382282,-8.365307808,-1.347159147
10.27402802,5.008177757,-8.219346046,-1.203589797
10.27878344,4.55354166,-8.073383331,-1.110269666
10.2835388,4.271188259,-7.908278942,-1.076770186
10.28829417,4.058227062,-7.812565804,-1.098305583
10.29304953,3.909872293,-7.762316704,-1.146162033
10.29780495,3.883551121,-7.757531166,-1.13419795
10.30256031,4.019941807,-7.850851059,-1.000199914
10.30731568,4.311866283,-7.982456207,-0.7992027402
10.31207109,4.666004181,-8.149953842,-0.5958128572
10.31682646,4.993820667,-8.293522835,-0.4163511395
10.32158182,5.350351334,-8.408378601,-0.2775674164
10.32633719,5.666203976,-8.480163574,-0.2392822653
10.3310926,6.049055576,-8.551948547,-0.2703889608
10.33584797,6.415157318,-8.597412109,-0.337387979
10.34060333,6.726224422,-8.650053978,-0.4378865361
10.34535875,6.967899323,-8.590232849,-0.524028182
10.35011411,7.140182972,-8.530412674,-0.5431707501
10.35486948,7.259823799,-8.408378601,-0.5096712112
10.35962484,7.427321434,-8.207381248,-0.4163511395
10.36438026,7.601997375,-8.008777618,-0.2871387303
10.36913562,7.791030407,-7.807780266,-0.09571290761
10.37389099,8.087740898,-7.645068169,0.1076770201
10.37864635,8.446663857,-7.501499176,0.2847459018
10.38340177,8.870193481,-7.357929707,0.404387027
10.38815714,9.355937004,-7.278966427,0.4474578202
10.3929125,9.860821724,-7.180860519,0.3302095234
10.39766792,10.3728857,-7.149754047,0.06221338734
10.40242328,10.8179512,-7.111468792,-0.3062812984
10.40717864,11.13619614,-7.049255371,-0.6652047038
10.41193401,11.34915733,-7.013363361,-0.9571290612
10.41668943,11.38265705,-7.00139904,-1.11984098
10.42144479,11.301301,-6.98704195,-1.244267821
10.42620016,11.19601727,-6.953542709,-1.395015597
10.43095557,11.10987568,-6.900900364,-1.538584948
10.43571094,11.08355427,-6.829115868,-1.746760488
10.4404663,11.16251755,-6.769295216,-1.9812572
10.44522167,11.2438736,-6.747759819,-2.158325911
10.44997708,11.32522964,-6.754938126,-2.287538528
10.45473245,11.41854954,-6.776473522,-2.306680918
10.45948781,11.39222908,-6.917650223,-2.108076811
10.46424318,11.37069321,-7.056434155,-1.751546144
10.46899859,11.18644619,-7.190432072,-1.304088354
10.47375396,10.861022,-7.357929707,-0.8781659007
10.47850932,10.3226366,-7.534998417,-0.626919508
10.48326474,9.600004196,-7.683353424,-0.6412764788
10.4880201,8.772088051,-7.819744587,-0.8159525394
10.49277547,8.092526436,-7.901100159,-1.158126116
10.49753083,7.60678339,-7.929814339,-1.596012712
10.50228625,7.286144733,-7.884350777,-2.127219439
10.50704161,7.085147858,-7.781459332,-2.632104874
10.51179698,6.994220734,-7.575676441,-3.007778168
10.5165524,6.912864685,-7.345965385,-3.302095175
10.52130776,6.762116909,-7.087540627,-3.450450182
10.52606312,6.63290453,-6.778866768,-3.460021496
10.53081849,6.544369698,-6.50369215,-3.290131092
10.53557391,6.431907177,-6.228517532,-3.041277647
10.54032927,6.326622963,-5.958128452,-2.775674343
10.54508464,6.230910301,-5.72123909,-2.615355253
10.54984005,6.113661766,-5.525027275,-2.505285263
10.55459542,6.02752018,-5.316852093,-2.411965132
10.55935078,6.04187727,-5.161318302,-2.411965132
10.56410614,6.111268997,-5.020142078,-2.512463808
10.56886156,6.163911343,-4.92442894,-2.734996319
10.57361693,6.250052929,-4.838287354,-2.959921598
10.57837229,6.326622963,-4.754538536,-2.97427845
10.58312771,6.405586243,-4.68275404,-2.78285265
10.58788307,6.412764549,-4.594219685,-2.421536446
10.59263844,6.491727829,-4.488935471,-1.995614052
10.59739385,6.580262184,-4.357329845,-1.674975872
10.60214922,6.704689026,-4.146761417,-1.45483613
10.60690458,6.953542709,-3.926621914,-1.275374413
10.61165995,7.226324558,-3.69212532,-1.071984529
10.61641536,7.534998417,-3.486342669,-1.00737834
10.62117073,7.76949501,-3.206382275,-1.282552958
10.62592609,7.948956966,-2.97427845,-1.744367719
10.63068146,7.920242786,-2.699103832,-2.136790514
10.63543687,7.733603001,-2.423929453,-2.275574446
10.64019224,7.389036179,-2.160718918,-1.947757602
10.6449476,6.915257454,-1.919043779,-1.318445325
10.64970302,6.329015732,-1.725225091,-0.7058826685
10.65445838,5.678168297,-1.557727575,-0.4546363056
10.65921375,5.020142078,-1.435693622,-0.6221339107
10.66396917,4.407579422,-1.361516118,-1.071984529
10.66872453,3.960121393,-1.258624673,-1.478764415
10.6734799,3.701696634,-1.153340459,-1.684547186
10.67823526,3.617947817,-0.9308080077,-1.787438512
10.68299068,3.594019651,-0.650847733,-1.744367719
10.68774604,3.43609333,-0.418743968,-1.452443361
10.69250141,3.369094372,-0.3708875179,-1.31126678
10.69725682,3.285345554,-0.3637090325,-1.091127157
10.70201219,3.16570425,-0.5216353536,-0.9020941257
10.70676755,3.182454109,-0.6843472719,-0.8709874153
10.71152292,3.419343472,-0.7704889178,-1.0863415
10.71627833,3.845266104,-0.7824530005,-1.47158587
10.7210337,4.342973232,-0.7058826685,-1.928615093
10.72578906,4.98903513,-0.6771687865,-2.230110645
10.73054448,5.704489231,-0.7944171429,-2.380858421
10.73529984,6.257231236,-0.9882357717,-2.376072884
10.74005521,6.381658077,-1.232303619,-2.232503414
10.74481057,6.142375946,-1.459621787,-2.227717876
10.74956599,5.804987907,-1.581655741,-2.414358139
10.75432135,5.532206059,-1.627119422,-2.679961443
10.75907672,5.472385406,-1.612762451,-2.68713975
10.76383214,5.419743061,-1.548156261,-2.388036966
10.7685875,5.228317261,-1.428515077,-1.875972986
10.77334286,4.725824833,-1.29451704,-1.433300734
10.77809828,4.053441525,-1.074377418,-1.325623751
10.78285365,3.524627686,-0.8566305041,-1.607976794
10.78760901,3.170490026,-0.6077769399,-2.108076811
10.79236437,2.976671457,-0.394815743,-2.443071842
10.79711979,3.215953588,-0.3469592929,-2.71824646
10.80187516,3.594019651,-0.404387027,-2.589034081
10.80663052,4.017549038,-0.5359922647,-2.309073925
10.81138594,4.304687977,-0.6652047038,-2.091326952
10.8161413,4.376472473,-0.8039883971,-2.074577332
10.82089667,4.326223373,-0.9451649189,-2.215753794
10.82565203,4.26879549,-1.050449133,-2.404786825
10.83040745,4.271188259,-1.16769743,-2.438286304
10.83516281,4.357329845,-1.289731383,-2.244467735
10.83991818,4.627718925,-1.409372568,-2.222932339
10.84467359,4.91007185,-1.536192179,-2.167897224
10.84942896,5.173282623,-1.663011789,-2.196611166
10.85418432,5.443671703,-1.840080619,-2.30189538
10.85893974,5.726024628,-2.050648928,-2.431107759
10.8636951,6.065805435,-2.239681959,-2.400001049
10.86845047,6.31226635,-2.457428932,-2.234896421
10.87320588,6.506084919,-2.651247501,-1.990828395
10.87796125,6.697510719,-2.890529871,-1.782652855
10.88271661,6.86022234,-3.192025423,-1.663011789
10.88747198,7.034898758,-3.543770313,-1.641476393
10.8922274,7.293323517,-3.909872293,-1.739582062
10.89698276,7.621140003,-4.321437836,-1.883151412
10.90173812,7.810173035,-4.670789719,-2.038684845
10.90649354,7.996813297,-5.046463013,-2.199003935
10.91124891,8.121239662,-5.355136871,-2.251646042
10.91600427,8.149953842,-5.709274769,-2.191825628
10.92075969,8.035098076,-6.044270039,-2.074577332
10.92551505,7.884350777,-6.319444656,-2.050648928
10.93027042,7.781459332,-6.589833736,-2.057827473
10.93502578,7.779066563,-6.817151546,-2.167897224
10.9397812,7.86281538,-7.013363361,-2.414358139
10.94453656,7.960920811,-7.185646534,-2.656033039
10.94929193,8.059026718,-7.32203722,-2.71824646
10.95404734,8.092526436,-7.362715244,-2.66799736
10.95880271,8.214560509,-7.324429989,-2.519642353
10.96355807,8.260024071,-7.245467186,-2.373680115
10.96831344,8.348558426,-7.11625433,-2.249253273
10.97306885,8.348558426,-6.929614544,-2.122433662
10.97782422,8.33180809,-6.754938126,-1.971685886
10.98257958,8.362915039,-6.510870457,-1.799402595
10.987335,8.370093346,-6.336194515,-1.679761529
10.99209036,8.36052227,-6.173482418,-1.672582984
10.99684573,8.336593628,-6.104090691,-1.828116536
11.00160114,8.250452042,-6.132804394,-2.093719721
11.00635651,8.066205025,-6.21894598,-2.232503414
11.01111187,7.7838521,-6.400800705,-2.254039049
11.01586729,7.515855789,-6.606583118,-2.20618248
11.02062266,7.274180889,-6.841079712,-2.024327993
11.02537802,7.118647575,-7.087540627,-1.715653777
11.03013339,6.963113785,-7.372286797,-1.366301775
11.0348888,6.776473522,-7.702496052,-1.071984529
11.03964417,6.580262184,-7.99202776,-0.8805587292
11.04439953,6.386443615,-8.348558426,-0.8542376757
11.04915495,6.163911343,-8.681160927,-1.00737834
11.05391031,6.039484501,-9.006584167,-1.234696507
11.05866568,6.025127411,-9.305686951,-1.409372568
11.06342109,6.113661766,-9.540184021,-1.500299811
11.06817646,6.400800705,-9.686145782,-1.495514154
11.07293182,6.900900364,-9.726823807,-1.402194023
11.07768719,7.523034573,-9.686145782,-1.304088354
11.0824426,8.236095428,-9.585647583,-1.191625714
11.08719797,8.999405861,-9.401400566,-1.067198873
11.09195333,9.700503349,-9.154939651,-0.9882357717
11.09670875,10.24367332,-8.944371223,-0.9810572863
11.10146411,10.69591713,-8.786444664,-1.067198873
11.10621948,10.97109222,-8.69551754,-1.146162033
11.1109749,11.08355427,-8.705088615,-1.076770186
11.11573026,11.12423229,-8.784051895,-0.8973084688
11.12048562,11.19841003,-8.913264275,-0.6939185858
11.12524104,11.35633659,-9.078369141,-0.5479564071
11.12999641,11.60519028,-9.253045082,-0.4642075896
11.13475177,11.82293701,-9.343972206,-0.404387027
11.13950714,12.0167551,-9.406186104,-0.4115654826
11.14426255,12.0717907,-9.403793335,-0.4402793646
11.14901792,11.99043465,-9.351150513,-0.4785645306
11.15377328,11.84447193,-9.198010445,-0.6029912829
11.1585287,11.69372463,-9.095118523,-0.7585247755
11.16328406,11.50469112,-8.963513374,-0.9188438654
11.16803943,11.35155106,-8.851051331,-1.105484009
11.17279484,11.31087303,-8.769695282,-1.225125194
11.17755021,11.38265705,-8.712266922,-1.344766378
11.18230557,11.60279655,-8.630910873,-1.37587297
11.18706099,11.89232826,-8.554341316,-1.32801652
11.19181635,12.09332561,-8.542376518,-1.306481123
11.19657172,12.07418346,-8.559126854,-1.339980721
11.20132714,11.94736385,-8.657232285,-1.529013634
11.2060825,11.71525955,-8.769695282,-1.875972986
11.21083786,11.41615677,-8.95154953,-2.330609322
11.21559323,11.06680489,-9.083154678,-2.746960402
11.22034865,10.7054882,-9.15733242,-2.971885681
11.22510401,10.32981491,-9.15733242,-3.026920557
11.22985937,9.87757206,-9.142974854,-3.012563705
11.23461479,9.415757179,-9.061619759,-2.969492912
11.23937016,9.018548965,-8.937192917,-2.890529871
11.24412552,8.705088615,-8.819944382,-2.792423964
11.24888094,8.463413239,-8.757730484,-2.708675146
11.2536363,8.271987915,-8.664410591,-2.62253356
11.25839167,8.035098076,-8.602197647,-2.488535643
11.26314708,7.695317745,-8.523234367,-2.227717876
11.26790245,7.276573658,-8.451449394,-1.957328916
11.27265781,6.805187702,-8.358129501,-1.64626193
11.27741318,6.367300987,-8.276773453,-1.385444283
11.28216859,6.037091732,-8.178668022,-1.122233868
11.28692396,5.850451469,-8.068597794,-0.9714859724
11.29167932,5.716453075,-7.984848976,-0.9116654396
11.29643474,5.45085001,-7.936992645,-0.9906286001
11.3011901,5.06560564,-7.910671711,-1.131805062
11.30594547,4.723432064,-7.92742157,-1.160519004
11.31070089,4.579862595,-8.001599312,-1.012163997
11.31545625,4.529613495,-8.106883049,-0.8087740541
11.32021161,4.584648132,-8.228917122,-0.6699903607
11.32496703,4.761716843,-8.405985832,-0.6005984545
11.3297224,5.091926575,-8.676374435,-0.6317051649
11.33447776,5.441278458,-8.985049248,-0.650847733
11.33923318,5.867201328,-9.399007797,-0.679561615
11.34398854,6.295516491,-9.812965393,-0.6053841114
11.34874391,6.711867332,-10.15035343,-0.4618147612
11.35349927,7.039684296,-10.39681435,-0.3780659735
11.35825469,7.219145775,-10.5475626,-0.313459754
11.36301005,7.312466145,-10.55474091,-0.3086741269
11.36776542,7.240681171,-10.42552853,-0.2943171859
11.37252083,7.101897717,-10.23888779,-0.2632105052
11.3772762,6.87457943,-9.951749802,-0.1651047617
11.38203156,6.671189308,-9.556933403,-0.01914258115
11.38678698,6.582654953,-9.095118523,0.0933200866
11.39154234,6.692724705,-8.635697365,0.1483550072
11.39629771,6.996613503,-8.193024635,0.09810572863
11.40105312,7.496713161,-7.831708431,0.002392822644
11.40580849,8.111668587,-7.463213921,-0.1411765367
11.41056385,8.757730484,-7.161718369,-0.3541377485
11.41531927,9.370293617,-6.88893652,-0.5742774606
11.42007464,9.920642853,-6.606583118,-0.7728816867
11.42483,10.35613632,-6.355337143,-0.9212366939
11.42958542,10.76530933,-6.101697922,-1.091127157
11.43434078,11.11944675,-5.900700569,-1.21555388
11.43909614,11.45922756,-5.704489231,-1.380658627
11.44385151,11.64826107,-5.575276852,-1.59840548
11.44860693,11.88754272,-5.441278458,-1.830509305
11.45336229,11.92822075,-5.369493961,-1.983649969
11.45811766,11.85643578,-5.352744102,-2.029113531
11.46287307,11.6339035,-5.395814896,-1.942971945
11.46762844,11.23669529,-5.462814331,-1.813759565
11.4723838,10.7677021,-5.544169903,-1.674975872
11.47713922,10.20778179,-5.704489231,-1.607976794
11.48189458,9.561718941,-5.807380676,-1.596012712
11.48664995,9.004191399,-5.943771362,-1.636690736
11.49140536,8.618947029,-6.063412666,-1.734796405
11.49616073,8.520841599,-6.101697922,-1.811366796
11.50091609,8.559126854,-6.082555294,-1.919043779
11.50567151,8.595019341,-6.034698486,-2.029113531
11.51042687,8.673981667,-5.982056618,-2.127219439
11.51518224,8.705088615,-5.917450428,-2.194218397
11.5199376,8.796015739,-5.886343479,-2.234896421
11.52469302,8.867800713,-5.879165173,-2.232503414
11.52944838,8.793622971,-5.915057659,-2.266003132
11.53420375,8.501698494,-6.046662807,-2.383251429
11.53895917,8.090133667,-6.156732559,-2.620140791
11.54371453,7.630711555,-6.326622963,-2.873780012
11.5484699,7.192824841,-6.446264267,-3.043670416
11.55322531,6.881757736,-6.525227547,-3.108276606
11.55798068,6.68076086,-6.589833736,-3.211168051
11.56273604,6.687939167,-6.577869415,-3.393022537
11.56749146,6.790830612,-6.56829834,-3.656233072
11.57224682,6.898507595,-6.556334019,-3.857230186
11.57700219,7.032505512,-6.60419035,-3.759124279
11.58175755,7.113861561,-6.628118515,-3.314059258
11.58651297,7.14496851,-6.616154671,-2.55792737
11.59126833,7.109076023,-6.527620316,-1.691725612
11.5960237,7.070790768,-6.250052929,-0.9355936646
11.60077911,7.058826923,-5.857629776,-0.5383850932
11.60553448,7.104290485,-5.412564754,-0.5503492355
11.61028984,7.274180889,-4.945964336,-0.732203722
11.61504526,7.393822193,-4.491328239,-0.9738788009
11.61980062,7.41535759,-4.067798615,-1.237089276
11.62455599,7.295716286,-3.668197155,-1.569691658
11.62931141,7.077969551,-3.278167009,-1.749153376
11.63406677,6.769295216,-2.904886723,-1.651047587
11.63882214,6.419943333,-2.565105915,-1.421336651
11.64357755,6.096911907,-2.268395901,-1.057627559
11.64833292,5.833701611,-1.926222205,-0.7657032609
11.65308828,5.733202934,-1.596012712,-0.7178468108
11.6578437,5.651846886,-1.299302697,-0.8183453679
11.66259906,5.584847927,-1.021735311,-0.8638089895
11.66735443,5.498706341,-0.784845829,-0.8877372146
11.67210979,5.37188673,-0.5407779217,-0.9786644578
11.67686521,5.127819061,-0.3589234054,-1.148554921
11.68162057,4.852644444,-0.2919243574,-1.258624673
11.68637594,4.534399033,-0.3038884699,-1.380658627
11.69113135,4.242474556,-0.337387979,-1.445264935
11.69588672,3.933800459,-0.5144568682,-1.418943882
11.70064208,3.687339783,-0.7369893789,-1.304088354
11.7053975,3.37387991,-1.024128079,-1.115055323
11.71015286,3.050848961,-1.253839016,-0.8805587292
11.71490823,2.766103029,-1.481157184,-0.7274180651
11.71966359,2.522035122,-1.564906001,-0.6891329288
11.72441901,2.488535643,-1.517049551,-0.5575276613
11.72917437,2.543570518,-1.399801254,-0.4761717021
11.73392974,2.519642353,-1.177268744,-0.6604190469
11.73868516,2.402393818,-1.002592683,-1.191625714
11.74344052,2.227717876,-0.9810572863,-1.847259045
11.74819589,2.067398787,-1.13419795,-2.522035122
11.7529513,2.026720762,-1.282552958,-3.014956474
11.75770667,2.170290232,-1.39022994,-3.371487141
11.76246203,2.65364027,-1.35912323,-3.579662561
11.76721745,3.395415306,-1.270588875,-3.577269793
11.77197281,4.376472473,-1.10309124,-3.393022537
11.77672818,5.446064472,-1.00737834,-3.091526747
11.78148359,6.39601469,-1.024128079,-2.591426849
11.78623896,6.833901405,-1.205982566,-1.907079697
11.79099432,6.683153629,-1.435693622,-1.600798368
11.79574974,6.192625046,-1.612762451,-1.911865234
11.8005051,5.843272686,-1.761117458,-2.787638426
11.80526047,5.778666496,-1.878365755,-3.6299119
11.81001583,5.891129494,-2.026720762,-3.873979807
11.81477125,6.113661766,-2.158325911,-3.680161238
11.81952661,6.197410583,-2.323430777,-3.345165968
11.82428198,6.063412666,-2.428714991,-3.031706333
11.8290374,5.88395071,-2.467000246,-2.830709219
11.83379276,5.833701611,-2.467000246,-2.629712105
11.83854812,5.726024628,-2.519642353,-2.433500528
11.84330354,5.630311489,-2.579462767,-2.33300209
11.84805891,5.472385406,-2.644068956,-2.359323025
11.85281427,5.300102234,-2.74935317,-2.467000246
11.85756969,5.082355499,-2.854637384,-2.378465652
11.86232505,5.079962254,-2.979064226,-2.488535643
11.86708042,5.111069202,-3.048455954,-2.478964329
11.87183583,5.261816978,-3.110669374,-2.347358942
11.8765912,5.544169903,-3.235096216,-2.041077614
11.88134656,5.895915031,-3.299702406,-1.706082582
11.88610198,6.281159401,-3.407379389,-1.569691658
11.89085734,6.589833736,-3.510270834,-1.660618901
11.89561271,6.762116909,-3.639483213,-1.816152334
