Time (s),Acceleration x (m/s^2),Acceleration y (m/s^2),Acceleration z (m/s^2)
9.004342395,0.47540933922226214,0.07221704212160346,0.028887098925898313
9.00909776,0.6367018720340012,0.06644741065179065,0.057466618039574265
9.013853176,0.8035668318486707,0.05319672923918957,0.0878420258311752
9.018608541,0.9759051059099801,0.0310325205484016,0.11941276938157853
9.023363906,1.153460634994578,-0.0012641946473779984,0.15150362093428077
9.02811927,1.335802576181927,-0.04466462138489663,0.18336954897168817
9.032874635,1.5223109923925713,-0.09986283781097549,0.21420304795863704
9.037630051,1.7121666699268336,-0.16725209681577036,0.24314405809010495
9.042385416,1.9043455620737377,-0.24690741779182407,0.2692925103144344
9.047140781,2.09761823978234,-0.33857499785167045,0.2917234212266857
9.051896145,2.2905546038191273,-0.44166885544228707,0.30950434167186647
9.05665151,2.4815339812458266,-0.5552749934413646,0.32171483933421813
9.061406926,2.6687605968421257,-0.6781632330070183,0.327467578584774
9.066162291,2.850284281266606,-0.8088067224886091,0.3259304604185228
9.070917656,3.0240261554575567,-0.9454089664479942,0.31634921004260136
9.07567302,3.1878089167392156,-1.085938048127166,0.2980697546081992
9.080428437,3.3393912461543134,-1.228167536108395,0.27055971892401165
9.085183801,3.4765057570586437,-1.3697233760900058,0.23342837897250343
9.089939166,3.5968998103126593,-1.508135877176874,0.18644444656789688
9.094694531,3.6983784314552386,-1.6408957157576856,0.12955110973561093
9.099449895,3.778848482437934,-1.7655127066365714,0.06287782045710705
9.104205312,3.8363631689693594,-1.8795759388058078,-0.01325159716659367
9.108960676,3.869165908639084,-1.980813750527659,-0.0983148523093524
9.113716041,3.8757325483028295,-2.0671519336417292,-0.1915913401715257
9.118471406,3.854810904480528,-2.1367685182131515,-0.2921666734004644
9.123226822,3.8054566104489487,-2.1881435028548606,-0.3989416230422269
9.127982187,3.727064291475559,-2.220101968925479,-0.5106454046798504
9.132737551,3.619393158759185,-2.2318491519723134,-0.6258531570749025
9.137492916,3.482586216189218,-2.2229962421717575,-0.7430073786322121
9.142248281,3.3171824133949266,-2.1935759442542064,-0.8604430083297789
9.147003697,3.124121252141395,-2.144047138874873,-0.976415757555997
9.151759062,2.9047395555075473,-2.0752883389798655,-1.0891332129898181
9.156514426,2.6607603310419012,-1.9885800094897517,-1.1967881365751436
9.161269791,2.394273887687497,-1.885576196686362,-1.2975932896769689
9.166025156,2.1077115879772386,-1.7682662738417487,-1.3898170119519369
9.170780572,1.8038128194792624,-1.6389279315599588,-1.4718187014591193
9.175535937,1.4855859438125416,-1.5000728083764032,-1.5420832819897519
9.180291301,1.156264123013195,-1.3543863589286589,-1.5992537161410245
9.185046666,0.8192570303219251,-1.204663690196315,-1.6421606351010347
9.189802083,0.4780995262056252,-1.0537431637198438,-1.6698482114801445
9.194557447,0.13639842177842634,-0.9044395699129548,-1.681595498555001
9.199312812,-0.20222153817622673,-0.759478637652749,-1.6769325926148582
9.204068176,-0.5341713607262545,-0.6214345563547167,-1.6556511364709698
9.208823541,-0.8559500966862491,-0.4926720657689952,-1.6178088619440372
9.213578958,-1.1641947539814483,-0.375294516067807,-1.5637280569619718
9.218334322,-1.4557269491665128,-0.2710991210072991,-1.4939880285558547
9.223089687,-1.7275955346551426,-0.1815404227823736,-1.4094118079816074
9.227845051,-1.977114572752747,-0.10770276169335306,-1.3110475030245072
9.232600416,-2.2018961664628445,-0.0502823010414086,-1.2001448431485844
9.237355833,-2.3998777946861396,-0.009578903345923831,-1.0781275857064214
9.242111197,-2.569343931517978,0.014502104942791765,-0.9465625570848077
9.246866562,-2.7089418541304404,0.02243849857446415,-0.807126191918568
9.251621926,-2.817691660724534,0.01507051088524962,-0.6615695044092772
9.256377343,-2.8949906281087,-0.006428328576917612,-0.5116824733838395
9.261132708,-2.940612134933788,-0.04058798666673284,-0.3592588405057472
9.265888072,-2.9546994581224233,-0.08568528641727846,-0.20606230344172807
9.270643437,-2.9377548140127336,-0.13979262798414516,-0.05379503011492
9.275398801,-2.890624061422529,-0.20083075439307269,0.09593067284173487
9.280154218,-2.8144775123013965,-0.26662416945698814,0.24161683125720385
9.284909583,-2.7107873092414607,-0.33495777436220825,0.3818998635876087
9.289664947,-2.5813018309631857,-0.4036332848432553,0.5155658566286871
9.294420312,-2.428017580521085,-0.4705240227780461,0.6415608735206906
9.299175729,-2.25314900003887,-0.5336267436943128,0.7589963039287051
9.303931093,-2.0590966434059372,-0.5911092631948558,0.8671494515456577
9.308686458,-1.8484141264881928,-0.6413527776080384,0.9654597209536224
9.313441822,-1.6237742635242998,-0.6829879331347184,1.0535209056247061
9.318197187,-1.387934787657522,-0.7149238785261001,1.1310701856853607
9.322952604,-1.1437040412227384,-0.7363697335205581,1.1979745157758726
9.327707968,-0.8939070054881033,-0.7468481131555758,1.2542151208832708
9.332463333,-0.6413520187135014,-0.7462005606392652,1.2998708247461674
9.337218697,-0.38879850546298317,-0.7345849525657537,1.335100915995686
9.341974114,-0.1389260099468984,-0.7124651438733793,1.3601282166805253
9.346729479,0.10569520681494125,-0.6805933104791191,1.375222960992087
9.351484843,0.3426317803648692,-0.6399856199684946,1.3806880227273628
9.356240208,0.5696128745863624,-0.5918920107863638,1.3768459508737143
9.360995572,0.7845536706838306,-0.5377609847343641,1.364028185110422
9.365750989,0.9855765780465321,-0.47920041410488523,1.3425667280463605
9.370506354,1.1710300493174683,-0.4179354324896559,1.3127884500567615
9.375261718,1.3395048876876325,-0.3557645170467311,1.2750120977974504
9.380017083,1.4898479253480694,-0.2945148801074943,1.229547971923274
9.384772499,1.621172927908021,-0.2359982699184353,1.1767001370836834
9.389527864,1.7328685439397993,-0.18196823446906407,1.116770931855434
9.394283229,1.8246030787076253,-0.13407982931365425,1.050067460846011
9.399038593,1.896325835808684,-0.09385265130844697,0.9769096774270176
9.403793958,1.948264749496439,-0.06263795781072976,0.8976396048162114
9.408549374,1.9809200322237022,-0.04159048914353506,0.8126311977829189
9.413304739,1.9950535924197461,-0.03164545629742536,0.7223003202113096
9.418060104,1.9916740398739017,-0.03350099214805506,0.6271143078265314
9.422815468,1.9720171908263036,-0.04760619971855873,0.527600601559089
9.427570885,1.9375221099248277,-0.07415477200620993,0.42435397418155607
9.432326249,1.8898028769011959,-0.11308401075400877,0.3180419283701648
9.437081614,1.8306164346246476,-0.1640789413057182,0.20940791476552598
9.441836979,1.761827051732118,-0.22658111123749972,0.09927209979628891
9.446592343,1.685368104181701,-0.2998015749379859,-0.011470499783054644
9.45134776,1.6032020304994998,-0.3827375073719672,-0.12185461025195973
9.456103124,1.5172794293946081,-0.47419185979979067,-0.2308520307631005
9.460858489,1.4294983327697557,-0.5727954684201942,-0.3373816265383767
9.465613854,1.3416646954243565,-0.6770310514221936,-0.4403218353536739
9.47036927,1.2554550972021008,-0.7852585758522608,-0.5385254650729784
9.475124635,1.1723825643369779,-0.8957415360851928,-0.6308364935697165
9.479879999,1.0937662992186032,-1.0066737524659757,-0.7161085243615919
9.484635364,1.0207059767090763,-1.1162063639458564,-0.7932245051620395
9.489390781,0.9540611321689123,-1.2224747458647862,-0.8611172844135547
9.494146145,0.8944360386095801,-1.3236251293496561,-0.9187905615188392
9.49890151,0.8421703509311932,-1.4178407302980396,-0.9653397753157467
9.503656874,0.7973356841273953,-1.5033672135348086,-0.9999724662648071
9.508412239,0.7597381878928102,-1.578537322536338,-1.0220276362456893
9.513167656,0.7289270794886813,-1.6417944988549422,-1.0309936151041252
9.51792302,0.7042089967597901,-1.6917153002152572,-1.0265239289901056
9.522678385,0.6846679305481634,-1.7270304048269827,-1.0084506592549258
9.527433749,0.6691903878787923,-1.7466439649201537,-0.9767947906270525
9.532189114,0.6564953235155901,-1.7496510483613372,-0.931773081100044
9.536944531,0.6451682596247108,-1.7353528869846593,-0.8738010486291773
9.541699895,0.6336988955516224,-1.7032696372767036,-0.8034917634378334
9.54645526,0.6205213980322668,-1.653150356212463,-0.7216502580831944
9.551210624,0.6040564631320354,-1.5849799048079132,-0.6292635151301482
9.555966041,0.5827541612705951,-1.4989825161241375,-0.5274861550687935
9.560721406,0.555136521727139,-1.395621803675224,-0.4176221128472517
9.56547677,0.5198387882993122,-1.2755970395424001,-0.3011027474061544
9.570232135,0.4756482875611251,-1.1398355966922245,-0.1794619640857434
9.574987551,0.42153989770652533,-0.98948152413455,-0.05430903691314754
9.579742916,0.3567071886326282,-0.8258803037905753,0.07270010842895169
9.584498281,0.2805884188989933,-0.6505599216636423,0.19989235215733653
9.589253645,0.192886716078892,-0.4652084707395921,0.3256067771243274
9.59400901,0.09358392579536583,-0.2716485869896475,0.4482232331319307
9.598764426,-0.01705221699774212,-0.07180910134105113,0.5661893545917414
9.603519791,-0.13846777085729156,0.13230563191758785,0.6780453981819434
9.608275156,-0.26982913540699854,0.33864819786427375,0.7824463689422193
9.61303052,-0.4100363168061425,0.5451617782226452,0.8781810236835024
9.617785937,-0.5577426173286016,0.7498143525397809,0.9641874752492192
9.622541301,-0.7113803186535592,0.950632750535106,1.0395652616163384
9.627296666,-0.8691918003252682,1.1457358343850474,1.1035838780325764
9.632052031,-1.0292654117715874,1.333366076445601,1.1556878853258075
9.636807447,-1.18957529542684,1.5119188019051428,1.195498792690998
9.641562812,-1.3480242406014222,1.6799683890297916,1.2228139637063975
9.646318176,-1.5024885390241205,1.836290763193968,1.2376028122697715
9.651073541,-1.6508637242091642,1.9798815849273814,1.2400005494114406
9.655828906,-1.7911100197715872,2.109969616140759,1.2302997249762884
9.660584322,-1.9212963056763601,2.2260248516449845,1.208939791760111
9.665339687,-2.0396414405832672,2.3277611241568774,1.17649491178811
9.670095051,-2.144551852727442,2.415133028922145,1.1336602282613182
9.674850416,-2.23465442776923,2.4883271666405933,1.081236841301299
9.679605833,-2.308823874707174,2.547747867000087,1.0201157464433146
9.684361197,-2.366203933947082,2.5939977248962447,0.9512610145541845
9.689116562,-2.4062219967140592,2.6278534511714686,0.8756925031685115
9.693871926,-2.428596921977126,2.650237702456854,0.7944683899019495
9.698627343,-2.433340055123339,2.6621877031617087,0.7086678144762653
9.703382708,-2.420749661733253,2.6648215997928792,0.619373916323505
9.708138072,-2.391399181031256,2.6593035875420443,0.5276575622216971
9.712893437,-2.3461198690340295,2.6468089169921476,0.4345620626968916
9.717648854,-2.285978534022012,2.628489921719576,0.3410891599746788
9.722404218,-2.212251159777053,2.6054442022549735,0.24818652399332902
9.727159583,-2.1263932589718286,2.5786860532149816,0.15673692265062242
9.731914947,-2.030007798331059,2.549122121387355,0.06754915743468022
9.736670364,-1.9248114947929047,2.51753212734616,-0.018649204514899508
9.741425729,-1.812600211906456,2.4845552724051845,-0.10121730833971704
9.746181093,-1.695214105515024,2.450682696642408,-0.17960472699249352
9.750936458,-1.574503091770936,2.4162560710139305,-0.2533534590778854
9.755691822,-1.4522931464089366,2.381472119760444,-0.32209827453717804
9.760447239,-1.3303538946311326,2.3463926000899655,-0.3855654979543337
9.765202604,-1.2103679175030349,2.310959032564711,-0.44357034270171847
9.769957968,-1.0939021849644386,2.275011291104721,-0.4960129290367407
9.774713333,-0.9823820261525549,2.2383090342194314,-0.5428731353902587
9.779468749,-0.8770680581670316,2.200554891649618,-0.5842044443963325
9.784224114,-0.7790365037688433,2.16141831060535,-0.6201269527745691
9.788979479,-0.6891633245840691,2.120559007002616,-0.6508197170757495
9.793734843,-0.6081125681768375,2.077649051158494,-0.6765126080578001
9.79849026,-0.5363292667110323,2.032392735031214,-0.6974778479020625
9.803245624,-0.4740371286668236,1.9845435099471198,-0.7140214059146208
9.808000989,-0.4212411375055839,1.9339174410511708,-0.7264744247897656
9.812756354,-0.3777350243901087,1.8804027896603945,-0.7351848356971699
9.81751177,-0.34311343252734483,1.8239655008001177,-0.7405092961461547
9.822267135,-0.3167884534532631,1.764650535474038,-0.7428055559455247
9.827022499,-0.29801009936839334,1.7025791421329854,-0.7424253325089837
9.831777864,-0.2858901816207072,1.6379423069497492,-0.7397077632531558
9.836533281,-0.27942899018180006,1.5709907561168357,-0.7349734997260221
9.841288645,-0.2775441089422987,1.5020220037566892,-0.7285195099994075
9.84604401,-0.2791006556265084,1.4313650438621894,-0.7206146554794722
9.850799374,-0.28294220387684216,1.3593633707933752,-0.7114960995429107
9.855554791,-0.2879216300905101,1.2863570765588241,-0.7013665862337112
9.860310156,-0.2929311300797557,1.2126648108989848,-0.6903926017838686
9.86506552,-0.2969306713513103,1.1385663994469957,-0.6787034084588891
9.869820885,-0.2989741866075428,1.0642868948439312,-0.6663909262283324
9.874576301,-0.29823287342799826,0.9899827862776809,-0.6535104342176349
9.879331666,-0.29401504278762747,0.9157310166839249,-0.6400820664101262
9.884087031,-0.2857820517049624,0.841521356916137,-0.6260930774230296
9.888842395,-0.2731599582168182,0.76725256610581,-0.6115008473646419
9.893597812,-0.2559466455834654,0.6927326310006864,-0.5962365757822047
9.898353176,-0.23411427382376823,0.6176832284524689,-0.5802095842230718
9.903108541,-0.20780702817413962,0.5417483991241806,-0.5633121099853378
9.907863906,-0.17733424416115184,0.4645072621334766,-0.5454244377371739
9.912619322,-0.1431590959870422,0.38549044515420655,-0.5264201886527317
9.917374687,-0.1058831373255214,0.3041997575736265,-0.5061715747757843
9.922130051,-0.06622708029687226,0.22013050028702086,-0.48455443288472283
9.926885416,-0.025008287991862267,0.1327956889801541,-0.46145287738683516
9.931640833,0.0168844643760397,0.041751372649994525,-0.4367634526799383
9.936396197,0.058518339464446005,-0.05337783998533399,-0.41039871570465375
9.941151562,0.09894523336456312,-0.15287397247734144,-0.382290230175017
9.945906926,0.13723132900360913,-0.2569025228568565,-0.35239099574262384
9.950662343,0.17248672018997308,-0.365491858637385,-0.32067736111131545
9.955417708,0.20389443756175246,-0.47851600426291296,-0.28715047785742115
9.960173072,0.23073823696222567,-0.5956815672110533,-0.25183734474360114
9.964928437,0.2524285440676597,-0.7165194292967543,-0.21479147712191224
9.969683801,0.2685259818418676,-0.8403816884079447,-0.1760932191490334
9.974439218,0.27876193756749945,-0.9664441774812867,-0.1358497028552502
9.979194583,0.28305565392633236,-1.0937147166159287,-0.09419445109588515
9.983949947,0.28152735564705106,-1.2210470756462073,-0.0512866238349365
9.988705364,0.27450695281332876,-1.3471604431261541,-0.007309920558766816
9.993460729,0.2625378984226116,-1.4706640183685804,0.03752882513409457
9.998216093,0.24637582620573015,-1.5900861708852712,0.08300129348505406
10.00297146,0.22698165982915863,-1.703907451223253,0.12885947461066372
10.00772687,0.20550897027502035,-1.8105965931270926,0.17483749601066326
10.01248224,0.18328546713675611,-1.9086485226811845,0.2206533561223202
10.0172376,0.1617886434115768,-1.9966232888299478,0.2660104469131449
10.02199297,0.14261575260699616,-2.073184755155793,0.31059877471406966
10.02674839,0.1274484801110227,-2.137137849454914,0.3540958300482597
10.03150375,0.11801287282680702,-2.1874631604648758,0.3961671093058926
10.03625911,0.11603530261084004,-2.223347705129115,0.4364663470462605
10.04101448,0.12319544676510676,-2.244210769235123,0.47463557019551506
10.0457699,0.1410774575252368,-2.2497238512099145,0.5103051291399173
10.05052526,0.1711206474325553,-2.2398239123920707,0.543093893912435
10.05528062,0.21457112612208598,-2.214719353131953,0.5726098267966766
10.06003599,0.272435877034224,-2.174888385378737,0.5984511556843082
10.06479141,0.34544075442220284,-2.1210697488725136,0.6202083734606142
10.06954677,0.4339938105293542,-2.05424600719379,0.6374672743242515
10.07430214,0.5381552322997086,-1.975619947580463,0.6498132053124572
10.0790575,0.6576149815705296,-1.8865848794654978,0.6568366592989507
10.08381292,0.7916790001882115,-1.7886898658480959,0.6581402664308225
10.08856828,0.9392645728979253,-1.6836011146764356,0.6533471599785549
10.09332364,1.0989051501460836,-1.5730608927673184,0.6421106077115508
10.09807901,1.2687646355642788,-1.4588453948725912,0.6241247187769153
10.10283443,1.4466608537900705,-1.3427230025362127,0.5991359640739036
10.10758979,1.6300976459946674,-1.226414302937627,0.566955188124153
10.11234516,1.816304802417386,-1.1115551122231644,0.5274697434985229
10.11710057,2.002284840007295,-0.999663569616512,0.48065534524992704
10.12185594,2.1848654739907145,-0.8921121501183016,0.42658722257663434
10.1266113,2.3607565189603203,-0.7901051999353347,0.36545013794449593
10.13136667,2.5266098908194095,-0.6946623461492503,0.29754684941742443
10.13612208,2.679081366047649,-0.606607885810564,0.22330460868576574
10.14087745,2.814892785995594,-0.526566032364741,0.14327931407803027
10.14563281,2.930893464103721,-0.45496169870403214,0.05815697457466297
10.15038818,3.0241196532766557,-0.39202633265020426,-0.031247811374001313
10.15514359,3.0918510484614417,-0.3378081955911544,-0.12399659783907875
10.15989896,3.1316634256732208,-0.29218638862443697,-0.21903521483797983
10.16465432,3.141476644674093,-0.25488788089794645,-0.31520534367055986
10.16940974,3.1195973618134802,-0.22550677845535108,-0.41125951005189604
10.1741651,3.064755908268308,-0.20352508462183722,-0.505879344375059
10.17892047,2.976136885584182,-0.18833424021092124,-0.5976968340441015
10.18367583,2.853403115571147,-0.17925678869685385,-0.68531816596755
10.1884312,2.6967126572051496,-0.17556758286205243,-0.7673496343845141
10.19318661,2.506728671632603,-0.1765140300944858,-0.8424249773701321
10.19794198,2.284621979759754,-0.18133495843282954,-0.9092334121040081
10.20269734,2.032066216841774,-0.18927777004732121,-0.9665475714433258
10.20745276,1.7512255462995239,-0.19961362929390272,-1.0132505087692494
10.21220812,1.4447349520383213,-0.2116505062380231,-1.0483609390826423
10.21696349,1.1156731867548741,-0.2247439627945211,-1.0710559240602189
10.22171885,0.7675285163651984,-0.23830562827806884,-1.0806902865530446
10.22647427,0.4041574726120943,-0.2518093661827875,-1.076812152644376
10.23122964,0.029736912521684228,-0.2647951865866882,-1.0591741616121881
10.235985,-0.35129021124450666,-0.2768710103710967,-1.0277400482033194
10.24074036,-0.7342748397195881,-0.2877124430716491,-0.9826864767483864
10.24549578,-1.1144268839096354,-0.29706076690902267,-0.9244001799504798
10.25025114,-1.4868845590317152,-0.30471940749013504,-0.8534706142577191
10.25500651,-1.8467869857888444,-0.3105491743121362,-0.7706784792300531
10.25976193,-2.1893489091229714,-0.3144626088816503,-0.6769805550340057
10.26451729,-2.5099362401196346,-0.31641779827641453,-0.5734913887964522
10.26927266,-2.8041410081692097,-0.3164120225935027,-0.46146240860578586
10.27402802,-3.0678542315044472,-0.31447559951825366,-0.3422590667523833
10.27878344,-3.2973351866781733,-0.31066626664654345,-0.21733661504185797
10.2835388,-3.489275588190338,-0.3050644019013593,-0.08821509806440679
10.28829417,-3.640857277950819,-0.29776932538156387,0.04354588164370503
10.29304953,-3.7498021638808727,-0.2888968542456518,0.1763721159644953
10.29780495,-3.8144133276053065,-0.2785781985775565,0.30869900099904124
10.30256031,-3.83360643229512,-0.2669601944259799,0.4389945973576309
10.30731568,-3.8069307935378056,-0.25420677537435715,0.5657811862358078
10.31207109,-3.7345797192210433,-0.24050149211748334,0.6876550165596289
10.31682646,-3.6173899688801168,-0.22605080709194367,0.8033039873979089
10.32158182,-3.456830418679068,-0.2110878244123158,0.9115230603137452
10.32633719,-3.2549802364967446,-0.19587606913273592,1.011227250553526
10.3310926,-3.014497066674955,-0.1807129071103162,1.1014621042925072
10.33584797,-2.738575893059312,-0.16593219825306063,1.1814116297259911
