Time (s),Acceleration x (m/s^2),Acceleration y (m/s^2),Acceleration z (m/s^2)
6.002060209,0.12556559096910072,-1.5476917626388544,0.948846659998056
6.006814636,-1.9298382229152513,-7.049937343097213,1.7937832743507738
6.011569063,-3.924243826145177,-12.382223434008903,2.5745553564357193
6.016323438,-5.805885177031158,-17.388182020852156,3.2619748371680624
6.021077865,-7.526507716612711,-21.923930003780253,3.831015285333323
6.025832292,-9.042970892319738,-25.863414563866403,4.2620559351005385
6.030586667,-10.318702828686662,-29.102959932436384,4.541873020081006
6.035341094,-11.32495152028495,-31.56481813415488,4.664321955646655
6.040095521,-12.041778404748753,-33.19957670396298,4.63066961598972
6.044849896,-12.458745340680583,-33.98733422698451,4.449554810031744
6.049604324,-12.575255419501781,-33.93761652903331,4.136575716853365
6.054358751,-12.400521618066687,-33.088068883058604,3.7135238883546036
6.059113126,-11.953154396485443,-31.502019022154265,3.2073038474931725
6.063867553,-11.260378662646211,-29.265058459390374,2.6485938657659442
6.06862198,-10.356910216411414,-26.48083237957253,2.0703161377638755
6.073376355,-9.283539908622352,-23.266258803222712,1.5059927946742657
6.078130782,-8.085488769650702,-19.746414675353588,0.9880680982212338
6.082885209,-6.810608354425595,-16.049330096128124,0.5462771757891979
6.087639584,-5.507507091706495,-12.300923111787379,0.20613830662023683
6.092394011,-4.223685427874926,-8.620287910430452,-0.012360553905961812
6.097148386,-3.0037601811136887,-5.115520838514819,-0.09581933901981804
6.101902813,-1.8878521390634904,-1.8802334923749078,-0.0381772984622323
6.10665724,-0.9102010807910171,1.0091375380676775,0.1588783906788537
6.111411615,-0.09805975683346739,3.495156679927909,0.4858683302414118
6.116166042,0.5290962995288913,5.540325733670951,0.9258462064657007
6.120920469,0.9600220769640796,7.127145635076887,1.4550824138187792
6.125674844,1.1918145526662813,8.257355771245532,2.044078544418959
6.130429271,1.229692879693592,8.950435332886954,2.658870239272551
6.135183699,1.086471971270666,9.241477691651891,3.262562647911887
6.139938074,0.7817661706710136,9.178568703283291,3.8170318864541644
6.144692501,0.3409690630141799,8.819812702076312,4.284717890065701
6.149446928,-0.20593809560894222,8.230155644590116,4.630429249716504
6.154201303,-0.8256934349569176,7.478153588444001,4.823079175928853
6.15895573,-1.4831205264477618,6.632826976141423,4.837273664320927
6.163710157,-2.142498875385043,5.760727823565706,4.654678141977993
6.168464532,-2.76888832016188,4.923328886316533,4.265097150607429
6.173218959,-3.3293625024079034,4.174822334980706,3.6672127070720117
6.177973386,-3.7941134707226927,3.5603916274203167,2.868940547907909
6.182727761,-4.137397144892529,3.114995344756671,1.8873791063228884
6.187482188,-4.338297381177229,2.862676927309488,0.7483432768320507
6.192236615,-4.381294360381549,2.8163905724886495,-0.5145068322438572
6.19699099,-4.25663064240371,2.978311963160875,-1.8609135923110864
6.201745417,-3.9604752400567387,3.3405837441233337,-3.245599607818249
6.206499844,-3.494892282835863,3.886430340764168,-4.620112650767519
6.211254219,-2.867626161503152,4.591565215394981,-5.934860506987534
6.216008646,-2.0917194297828563,5.425806191781206,-7.141246906934629
6.220763021,-1.1849832139811478,6.354811080645066,-8.19381163285431
6.225517449,-0.16934251205366294,7.3418463971628,-9.052273828802573
6.230271876,0.9299193562786775,8.349506262446225,-9.68337799775749
6.235026251,2.0849916475936427,9.341306348256571,-10.062447745194588
6.239780678,3.2664162326749007,10.283088607573465,-10.174563606366982
6.244535105,4.44399031723873,11.144186027941984,-10.01529840190943
6.24928948,5.587665587854471,11.898312026259976,-9.590965754990638
6.254043907,6.668418205691859,12.524155497338638,-8.918363141010628
6.258798334,7.659065270690992,13.005679057807074,-8.024018263589518
6.263552709,8.535005131020311,13.332133902501402,-6.942974793614495
6.268307136,9.274861256020921,13.497819191911521,-5.717178796032956
6.273061563,9.861012379251285,13.501626322218295,-4.393548855362746
6.277815938,10.279995307490438,13.346418124838582,-3.02182958235022
6.282570365,10.522771192072142,13.038299393920212,-1.6523387993347702
6.287324792,10.584851064331025,12.585837667861057,-0.3337226987976483
6.292079167,10.466281777387927,11.999291642112631,0.8891693938896155
6.296833594,10.171498773856229,11.289899063548063,1.9771879004677453
6.301588021,9.70905689659708,10.469266961457327,2.898475001414993
6.306342396,9.09125444854463,9.548895456784871,3.6296757335507324
6.311096824,8.333668691948256,8.539853192327733,4.156719522839634
6.315851251,7.454622890619688,7.4526087174915014,4.4751465134144555
6.320605626,6.4746058763328955,6.29700897283692,4.589976446765996
6.325360053,5.415665047714897,5.082384282711207,4.515140489724325
6.33011448,4.300792769587188,3.817749767951678,4.272517268582157
6.334868855,3.153324411857832,2.51206645162978,3.890632485272487
6.339623282,1.9963638759509594,1.1745219626792154,3.4030960299919872
6.344377709,0.8522496160660122,-0.18520917525550826,2.8468607873026293
6.349132084,-0.257928848360491,-1.5567622234648872,2.260392847191446
6.353886511,-1.314756828168524,-2.928965919310964,1.6818431711308188
6.358640938,-2.3008582059531135,-4.289834190842094,1.14730573820129
6.363395313,-3.2011944670984547,-5.626676008538309,0.689237302964013
6.36814974,-4.003297848771169,-6.926321438024885,0.3351006118213368
6.372904167,-4.697438255366978,-8.175449602281104,0.10627817961515248
6.377658542,-5.27672406926452,-9.360992749984005,0.017288977342442436
6.382412969,-5.737137405857211,-10.470581475281364,0.07532622828034997
6.387167396,-6.0775048416439725,-11.492990922541805,0.28012098301244137
6.391921771,-6.299405095233785,-12.418547525360427,0.624123139103683
6.396676199,-6.4070155154272985,-13.239460356258226,1.0929792192595462
6.401430626,-6.406899755639245,-13.950049394761448,1.6662750712394234
6.406185001,-6.307740073632874,-14.54685345134285,2.3185025491456592
6.410939428,-6.120019506697722,-15.028611702522149,3.0202029629259606
6.415693855,-5.855661613292146,-15.39612360871312,3.739236947784526
6.42044823,-5.527638130881808,-15.652001418385275,4.442130008264119
6.425202657,-5.149557229338668,-15.800336808436434,5.095444396671406
6.429957084,-4.735246556729528,-15.846308148312948,5.6671302097224885
6.434711459,-4.2983457233358395,-15.795757434574032,6.127811053972954
6.439465886,-3.8519222473705597,-15.65476636856626,6.451962278695858
6.444220313,-3.408123449587658,-15.429259658758887,6.618942851532269
6.448974688,-2.977874553954165,-15.124660729750225,6.613845748682121
6.453729115,-2.5706305728393226,-14.74562089873913,6.428136448038804
6.458483542,-2.194186695238807,-14.29583801213726,6.060054846716485
6.463237917,-1.854549128333824,-13.777974790728898,5.514762697896306
6.467992344,-1.5558658930611318,-13.193680981978984,4.804226450549715
6.472746771,-1.3004150655034739,-12.54371713537374,3.946834091885429
6.477501146,-1.0886463980298282,-11.82817166912307,2.9667540546654823
6.482255574,-0.9192711176478289,-11.046757125590489,1.8930541818054425
6.487010001,-0.7893940091364016,-10.199166315364293,0.7586088127663362
6.491764376,-0.694681741345464,-9.285464605008917,-0.4011680481893704
6.496518803,-0.6295618475718363,-8.306491144748454,-1.5497161254891347
6.50127323,-0.5874477154770807,-7.264239695997368,-2.650792998251324
6.506027605,-0.5609860522981728,-6.162189293291914,-3.6699461903781296
6.510782032,-0.5423241351192225,-5.0055565653694,-4.575925819452191
6.515536459,-0.5233944010352144,-3.801445248906321,-5.341968914525668
6.520290834,-0.49621347719289455,-2.558874137731728,-5.946889124135767
6.525045261,-0.4531916789609647,-1.288672120371979,-6.375913274529436
6.529799688,-0.3874474482594416,-0.0032375974260539634,-6.621219796238635
6.534554063,-0.2931192954122257,1.28383121414793,-6.682152848381759
6.53930849,-0.165665725719846,2.5582195445705316,-6.565107621175126
6.544062917,-0.002141616888809943,3.805469185033612,-6.283103217671148
6.548817292,0.1985621941846057,5.011610922540732,-5.85507662041723
6.553571719,0.4355305580652985,6.163820627694766,-5.304943128203659
6.558326146,0.7057018298846457,7.25106008726396,-4.660475512858234
6.563080521,1.0038263235908165,8.26466253755382,-3.952057046351454
6.567834949,1.3225181528629495,9.198823990421044,-3.2113637192260422
6.572589376,1.6524100566973594,10.050964915917355,-2.4700295426061434
6.577343751,1.9824162524357454,10.821932558062446,-1.758346675414152
6.582098178,2.3001026881078435,11.516021823829508,-1.104049693424683
6.586852605,2.5921577457991227,12.140801819700854,-0.5312304820322034
6.59160698,2.84494997486965,12.706745104956415,-0.059426323719157605
6.596361407,3.0451532227654394,13.226666962862744,0.29708208547211107
6.601115834,3.180413903133745,13.714991933635845,0.5297342764032762
6.605870209,3.240030383217645,14.186874117051978,0.6358976516083614
6.610624636,3.215610892938166,14.657206055419659,0.6188140171106192
6.615379063,3.101674292854367,15.139558117887917,0.4872930664185651
6.620133438,2.8961578168659283,15.645096000291876,0.2551733755599314
6.624887865,2.600797787805318,16.181527995789192,-0.059417962219861536
6.629642292,2.2213534015740173,16.7521358428936,-0.4349680906643769
6.634396667,1.7676498927902295,17.354943001844532,-0.8475996032840687
6.639151094,1.2534254299116858,17.98207197470463,-1.2721638016890364
6.643905521,0.6959754914416272,18.619337664328143,-1.6833589703886767
6.648659896,0.11559873436088848,19.246116750618025,-2.0568274585907855
6.653414324,-0.465141026351389,19.83552375123551,-2.3701875020425254
6.658168751,-1.0223116280391085,20.354913048047194,-2.603959265950367
6.662923126,-1.5316331728135788,20.76671302272762,-2.7423496104561567
6.667677553,-1.9695786475114931,21.02958396201025,-2.7738664986049013
6.67243198,-2.3145035639822598,21.099876051991593,-2.691741561838342
6.677186355,-2.5477486155736937,20.933348150067644,-2.494147780424003
6.681940782,-2.6546570598838355,20.48709274099157,-2.1842081239105324
6.686695209,-2.625449462308853,19.721598238680617,-1.769799904231246
6.691449584,-2.455902853793058,18.60286731619605,-1.263168127280676
6.696204011,-2.1477892457373953,17.104499999328933,-0.6803689343946766
6.700958438,-1.7090394479480513,15.209643630980729,-0.04057095158584923
6.705712813,-1.153611630482516,12.912709256364911,0.6347523573083772
6.71046724,-0.501059271634543,10.220756129596403,1.3227027382676046
6.715221667,0.2241908256650661,7.154453340775658,1.9998714766871029
6.719976042,0.9938237727621406,3.748540192086304,2.643250344460797
6.724730469,1.7768433147546,0.05172479559576928,3.2311037551647925
6.729484896,2.5409448413433506,-3.8740170172151345,3.743770478195544
6.734239271,3.2539884986130803,-7.954753769955676,4.1643681725630115
6.738993699,3.8854982915756002,-12.106503180488351,4.4793796782991375
6.743748126,4.408108805375008,-16.23768050516362,4.679106060723539
6.748502501,4.798881008668273,-20.25201016776899,4.757977474076219
6.753256928,5.040412823576508,-24.051791358969865,4.714718672498719
6.758011355,5.12167890512817,-27.541382997011336,4.552371143417465
6.76276573,5.038547381097026,-30.630753966821842,4.278177998740093
6.767520157,4.793938939927301,-33.23893289184926,3.903340460929317
6.772274584,4.397614968972014,-35.297189528421924,3.4426557109434377
6.777028959,3.865605126912644,-36.75178818004591,2.9140453523284546
6.781783386,3.2193087393475586,-37.56617220815993,2.3379829008543074
6.786537813,2.484326225781691,-37.72246654065771,1.7368288716377323
6.79129224,1.6890940066260296,-37.222219998803084,1.1340840419429794
6.796046615,0.8634073351732959,-36.0863488276902,0.5535754219130735
6.800801042,0.036919633940191855,-34.35428448426706,0.018594936929801277
6.805555417,-0.7622954643218494,-32.08236997692024,-0.44898301073586233
6.810309844,-1.509041098045908,-29.341587317605615,-0.8295732459562765
6.815064271,-2.1820871787151592,-26.21473144990533,-1.106704982499205
6.819818646,-2.7650027918833597,-22.793171202336328,-1.267763324579659
6.824573074,-3.24669764084876,-19.17335396854081,-1.3046115818006612
6.829327501,-3.621657121105465,-15.453217462116365,-1.2140629859508516
6.834081876,-3.889873132853371,-11.728669404858302,-0.9981762875780601
6.838836303,-4.056488906426582,-8.09028533451,-0.6643566069525207
6.84359073,-4.131190202706349,-4.620357157725833,-0.2252502861233014
6.848345157,-4.12738670623269,-1.390402117213937,0.3015699105909438
6.853099532,-4.0612358677909794,1.5407849167420877,0.8941251477524776
6.857853959,-3.9505666636838432,4.128481858474399,1.5267444741602494
6.862608386,-3.813762695618269,6.342768093253441,2.1709526184004595
6.867362761,-3.668662924282314,8.16863570002947,2.7965042864426835
6.872117188,-3.5315344442666428,9.605514042626284,3.372530574370949
6.876871615,-3.416165514026336,10.666261959142524,3.8687569197570135
6.88162599,-3.3331190534383572,11.375701191919955,4.25674703981384
6.886380417,-3.2891775312013243,11.768779554755993,4.511123880101197
6.891134844,-3.2870000954238483,11.88846229924047,4.610717004440933
6.895889219,-3.3250024331604577,11.783455128805535,4.5395862914020215
6.900643646,-3.3974596065244613,11.505862456332492,4.287874364149787
6.905398021,-3.4948223703766335,11.108880149657875,3.8524448696302844
6.910152449,-3.604228532506857,10.644613667288299,3.2372704588633625
6.914906876,-3.7101830144388472,10.162100795633979,2.45354296207437
6.919661251,-3.795373600806014,9.705603902741139,1.519488606169819
6.924415678,-3.8415840873704705,9.313220535676441,0.4598829161442656
6.929170105,-3.8306628007383448,9.015844154098717,-0.6947272032711965
6.933924532,-3.7455024032653412,8.83648963973744,-1.9090732891709132
6.938678907,-3.570986611215431,8.789981719374437,-3.144452727643488
6.943433334,-3.29486096649232,8.88298926648031,-4.3602066791279555
6.948187709,-2.908488049824614,9.11437517249287,-5.515330002146908
6.952942136,-2.4074523683938773,9.475820543465284,-6.570145149535656
6.957696563,-1.7919864013171745,9.952673685037778,-7.48796510745175
6.962450938,-1.0671967189518565,10.524968863270187,-8.236666814603867
6.967205365,-0.24307747511549013,11.168557238620268,-8.790096804569645
6.971959792,0.6656923337450042,11.856292646418202,-9.129235637169824
6.976714219,1.6401619296624712,12.559217931654121,-9.243057306261884
6.981468594,2.6577166684714584,13.247703100261322,-9.129033955751702
6.986223021,3.6928562332441612,13.892494205669998,-8.79325400297277
6.990977449,4.718110348194443,14.46564106908624,-8.250141883440339
6.995731824,5.705052432598967,14.941281990913447,-7.521788813486805
7.000486251,6.625366526486842,15.296273931456883,-6.636925097296635
7.005240626,7.451919799262475,15.510666647761862,-5.629584487430419
7.009995053,8.159792264198764,15.568028414409055,-4.537528660400976
7.01474948,8.727217138907857,15.455638681384327,-3.4005135339151473
7.019503907,9.136389686603048,15.16456880889435,-2.2584876337801227
7.024258282,9.374109275649065,14.689675405932256,-1.1498153155917834
7.029012709,9.432228491945382,14.029531457025566,-0.1096144492825611
7.033767136,9.307893792441918,13.18631826776154,0.8317101023451556
7.038521511,9.003573504623215,12.165696569743304,1.6496682479968467
7.043275938,8.526880013005256,10.97666854245918,2.3265681756279544
7.048030365,7.890202930225224,9.63143492337354,2.8520457374437815
7.05278474,7.110178338854855,8.145243752255483,3.2232227547526806
7.057539167,6.20702541118463,6.536220530979245,3.44449656394563
7.062293594,5.203785638871573,4.825164433938631,3.5269818526285324
7.067047969,4.125501491476355,3.035292258021136,3.487643097691483
7.071802396,2.998370732455945,1.1919114399903086,3.348170849482471
7.076556824,1.8489101798176297,-0.6779941343174931,3.1336669457419895
7.081311199,0.7031588311553495,-2.54627670367981,2.8712118703028575
7.086065626,-0.4140545603575592,-4.384239241130905,2.588391428018564
7.090820053,-1.4797597172179704,-6.163346314441428,2.3118593454008405
7.095574428,-2.4733945745587884,-7.856014745581103,2.0660072051142193
7.100328855,-3.377247407737378,-9.436456530377939,1.87180370397972
7.105083282,-4.176786922474302,-10.881535870142907,1.7458527615485009
7.109837657,-4.860879962779795,-12.17159310969179,1.6997060543972298
7.114592084,-5.421899981656893,-13.291182265259812,1.7394513174872657
7.119346511,-5.855732314235429,-14.229667273303367,1.8655837519606626
7.124100886,-6.1616844821016485,-14.981626371527716,2.0731542340824043
7.128855313,-6.342311112082163,-15.547024380919936,2.3521749936912286
7.13360974,-6.40316362288004,-15.931128080198896,2.6882516709546094
7.138364115,-6.35247491838358,-16.144158467676988,3.063401085959189
7.143118542,-6.200789347732431,-16.20069328234017,3.457007544524676
7.147872917,-5.960548491708594,-16.118851529587197,3.8468675389845965
7.152627344,-5.645644033749863,-15.919307043386056,4.210273103937832
7.157381771,-5.270949932833262,-15.62418904295813,4.525087027135114
7.162136146,-4.851847005728926,-15.25593375042248,4.770767482714284
7.166890574,-4.4037534775547025,-14.83615264293607,4.929304518918629
7.171645001,-3.9416748178011423,-14.38458034484615,4.98603573081681
7.176399428,-3.4797851841804293,-13.918159081243328,4.9303133622022575
7.181153803,-3.031051154763563,-13.450307547111832,4.756000216476561
7.18590823,-2.6069063422412633,-12.990410559791995,4.461777318383459
7.190662657,-2.2169832086319476,-12.543552603686924,4.051252341342393
7.195417032,-1.8689062076125598,-12.110504088620964,3.5328643432280473
7.200171459,-1.5681484969501402,-11.68795464846172,2.9195871849937793
7.204925886,-1.3179529844996725,-11.26897395784444,2.228440972078223
7.209680261,-1.1193173579038125,-10.843668157934164,1.4798278258794355
7.214434688,-0.9710418703863026,-10.399989758501587,0.6967151544461463
7.219189115,-0.8698378690776156,-9.92465134415895,-0.09630378964272125
7.22394349,-0.810494266417905,-9.4040888555252,-0.8740361041802751
7.228697917,-0.7860983628550003,-8.825418712211997,-1.6117607510227658
7.233452292,-0.7883066856772156,-8.1773344882381,-2.286299443152462
7.238206719,-0.8076608442181175,-7.450893051062369,-2.8770377299439587
7.242961146,-0.8339427238934194,-6.640146822510779,-3.366845655060666
7.247715574,-0.8565624319060656,-5.742587862604326,-3.7428484268260753
7.252469949,-0.8649710468082931,-4.759380442356691,-3.997001985065394
7.257224376,-0.8490883549904424,-3.6953711070578548,-4.12643691576146
7.261978803,-0.7997335424853874,-2.558878220733737,-4.13354711714402
7.266733178,-0.7090445691868361,-1.3612758086856158,-4.025816254998573
7.271487605,-0.5708700603128454,-0.11639835966205453,-3.8153933965066287
7.276242032,-0.38111635024528173,1.1601965907284235,-3.5184464304792806
7.280996407,-0.13803203409513323,2.4520633018404476,-3.154335293314591
7.285750834,0.15758690862572594,3.7427498206611864,-2.744655182197142
7.290505261,0.5022866983196096,5.016674025021677,-2.3122029493394396
7.295259636,0.8899527759796777,6.259940534567597,-1.8799188793258523
7.300014063,1.3119235264552909,7.461048004866936,-1.4698524849517693
7.304768438,1.7572255342613623,8.611441759782615,-1.1021959978830134
7.309522865,2.212929779329278,9.705874726203414,-0.7944236430712133
7.314277292,2.6646219328225635,10.742549856482514,-0.5605689683298748
7.319031667,3.0969732200345224,11.723029107077224,-0.4106665723727096
7.323786094,3.4943916958759966,12.651906891155933,-0.3503783988157462
7.328540521,3.8417277448265588,13.536258989871648,-0.38081798595256366
7.333294896,4.125002584660143,14.384890488496985,-0.49857830467246894
7.338049324,4.332124820519451,15.207417802413808,-0.6959599779339607
7.342803751,4.453557912391088,16.01322979488724,-0.9613871400456145
7.347558178,4.482901054210847,16.810380987927626,-1.279988822675421
7.352312553,4.417347693862457,17.604475636129816,-1.6343156295730887
7.35706698,4.257989928127561,18.397604741888298,-2.0051554892927324
7.361821355,4.009943252146421,19.187398763709908,-2.3724088583128635
7.366575782,3.682274360597318,19.966256687597255,-2.7159827599795046
