Time (s),Acceleration x (m/s^2),Acceleration y (m/s^2),Acceleration z (m/s^2)
9.004905291,1.0076044382531022,1.0973398721769736,-1.203629042673665
9.009905291,0.9566447260644353,1.094864718078216,-1.2107647152514103
9.014905291,0.902870747790757,1.0901590853583543,-1.2153669015857997
9.019905257,0.8462195205066126,1.0831280131412755,-1.217422511120397
9.024905257,0.7866208669667154,1.0736848449927494,-1.216925025450685
9.029905257,0.7239980722794694,1.0617519435202107,-1.2138743781730954
9.03490529,0.6582688145856707,1.0472613480378516,-1.2082768636778534
9.039904623,0.5893463752892495,1.0301553677037592,-1.200145079160544
9.044903723,0.5171411294776186,1.0103871027383202,-1.1894979024585617
9.049902789,0.44156231219902736,0.9879208865694984,-1.1763605066259804
9.054901855,0.3625200513188097,0.962732642062657,-1.1607644104975714
9.059901188,0.27992765278026926,0.9348101454066802,-1.1427475628756318
9.064900321,0.19370411926169803,0.9041531917379949,-1.1223544564153625
9.069899454,0.1037768784790807,0.870773657167345,-1.0996362658125378
9.074898554,0.01008469278715914,0.8346954525184815,-1.0746510035408599
9.079897887,-0.08741928265247441,0.7959543648024071,-1.0474636851650736
9.084897887,-0.18876432996753165,0.7545977832592444,-1.0181464951773362
9.08989722,-0.29395892751888164,0.7106843077287975,-0.9867789433714147
9.09489682,-0.40298748162698594,0.6642832381842786,-0.9534480009879144
9.099897253,-0.5158070779201233,0.615473945500549,-0.9182482052463022
9.104897253,-0.632344301556041,0.564345124937408,-0.8812817204434089
9.109896586,-0.7524921774446368,0.5109939353943733,-0.8426583435605449
9.114896619,-0.8761072828950788,0.45552502922037413,-0.8024954422958307
9.119896819,-1.0030070857813496,0.3980494792206079,-0.760917813639752
9.124896419,-1.132967561314892,0.33868361147237297,-0.7180574515677991
9.129895719,-1.2657211397734929,0.27754775461672515,-0.6740532131806283
9.134895719,-1.4009550359927956,0.21476491839892856,-0.6290503737414531
9.139895719,-1.5383100089998858,0.1504594163362089,-0.5832000626126288
9.144895385,-1.6773795967815222,0.08475544942655858,-0.5366585741452633
9.149895385,-1.8177098668058387,0.01777566970520872,-0.4895865501706393
9.154895385,-1.9587997176177485,-0.05036025585165277,-0.4421480338840075
9.159895385,-2.100101760748572,-0.11953705913257003,-0.3945093985622636
9.164895385,-2.2410238054872362,-0.18964523933486577,-0.346838158640846
9.169895385,-2.380930961882614,-0.26058236226302395,-0.299301675069
9.174895351,-2.5191483697550607,-0.3322542665090873,-0.2520657713852463
9.179895317,-2.654964553530186,-0.4045761529542423,-0.2052932813736591
9.184895317,-2.7876353944152394,-0.4774735350454335,-0.15914255323103277
9.189896017,-2.916388702883797,-0.5508830288504565,-0.11376593869675497
9.19489695,-3.0404293656996733,-0.6247529638736848,-0.06930829846163283
9.19989785,-3.1589450328904607,-0.6990437979220976,-0.02590555735643675
9.20489875,-3.271112301280923,-0.7737283218825408,0.016316655647760248
9.209899383,-3.376103342534318,-0.8487916430840453,0.05724424669018611
9.214900249,-3.4730929152623173,-0.9242309389798469,0.09677573931383794
9.219901115,-3.5612656928278685,-1.0000549761922854,0.13482316401534697
9.224902015,-3.6398238312085565,-1.076283393475431,0.17131272049891322
9.229902715,-3.7079946949733222,-1.1529457507707646,0.20618518034199088
9.234902748,-3.7650386543184076,-1.2300803501536395,0.23939600142186812
9.239903448,-3.810256862471926,-1.3077328380115905,0.2709151310009052
9.244903848,-3.8429989208727173,-1.3859546012014605,0.30072648240486116
9.249903381,-3.862670339558389,-1.4648009731348854,0.32882708100758995
9.254903347,-3.8687397021672805,-1.544329268662798,0.35522588819672335
9.259904013,-3.8607454485963615,-1.6245966692143399,0.37994232565549374
9.264904013,-3.838302193170921,-1.7056579818897013,0.40300453478955267
9.269904046,-3.801106501655514,-1.7875632981310936,0.42444741602110025
9.274904446,-3.748942056212822,-1.8703555791932016,0.444310499399716
9.279905112,-3.681684143364124,-1.954068196840994,0.46263570169130785
9.284905078,-3.599303406142913,-2.0387224584262262,0.4794650262784984
9.289905044,-3.501868808025159,-2.1243251456715857,0.49483826135830733
9.294905377,-3.389549762897571,-2.2108660961520923,0.5087907295259242
9.299905843,-3.262617392287419,-2.298315855752512,0.5213511382833087
9.304905843,-3.1214448783507316,-2.3866234295166007,0.5325395766061577
9.309905876,-2.9665068888202994,-2.4757141574936505,0.5423656976243699
9.314905909,-2.7983780584522155,-2.565487741556812,0.5508271218178984
9.319905275,-2.617730520664504,-2.6558164487680864,0.5579080889926128
9.324905275,-2.425330493093322,-2.746543516706156,0.5635783808328964
9.329905275,-2.2220339315792237,-2.8374817862223005,0.5677925292706477
9.334905241,-2.008781278356562,-2.9284125872381734,0.570489319563483
9.339905241,-1.7865913416022896,-3.0190849032496607,0.5715915911153873
9.344905241,-1.5565543546806533,-3.1092148399063513,0.5710063338651594
9.349905274,-1.3198242741345463,-3.1984854221719803,0.5686250735261841
9.354905274,-1.0776103855110855,-3.286546742990459,0.5643245349909713
9.359905274,-0.8311682952980527,-3.373016484016644,0.5579675696922566
9.364905274,-0.5817903954617949,-3.457480825797632,0.5494043295538583
9.369905274,-0.3307958942156872,-3.53949576081496,0.5384736673551606
9.374905274,-0.0795205125972084,-3.6185888180785324,0.5250047409436288
9.37990524,0.170694048957216,-3.6942612026309427,0.508818796923333
9.38490524,0.41851076671972826,-3.7659903475641605,0.4897311084709181
9.38990524,0.6626079635498101,-3.833232870166985,0.46755304205860226
9.394905273,0.9016898835137618,-3.8954279177689783,0.4420942293026267
9.399905273,1.1344970634175864,-3.9520008828154563,0.41316482295412726
9.404905273,1.3598163958247773,-4.00236746074402,0.3805778200553541
9.409905239,1.5764907816852054,-4.045938018415203,0.34415144014203286
9.414905239,1.7834282754285022,-4.082122235375939,0.3037115515400885
9.419905239,1.9796106312604886,-4.11033397542584,0.2590941435758276
9.424905272,2.1641011663398593,-4.129996342139512,0.21014784608932005
9.429905305,2.336051864307253,-4.140546869332196,0.1567364992636263
9.434905305,2.4947096510278772,-4.14144279583388,0.0987417759749557
9.439905305,2.6394217831147246,-4.132166373035734,0.036065855561064133
9.444905305,2.7696402986048043,-4.112230153104442,-0.031365857582871984
9.449904838,2.8849254879805097,-4.081182205229342,-0.10360198429730642
9.454904838,2.9849483526239915,-4.038611206672893,-0.18066241169772693
9.459904804,3.0694920269007753,-3.984151354860162,-0.26253555530430106
9.464904804,3.1384521494869726,-3.9174870465917953,-0.3491756807185493
9.46990547,3.19183617927077,-3.838357271138584,-0.44050033031194846
9.474905503,3.229761661068354,-3.7465596658835016,-0.536387905614704
9.479905503,3.252453456360959,-3.6419541865545595,-0.6366754589806952
9.484905503,3.2602399641710162,-3.524466348947951,-0.7411567483323018
9.489905469,3.2535483669892535,-3.394090005179945,-0.8495806063548857
9.494905435,3.232898946334306,-3.2508896245684924,-0.9616496707693816
9.499905401,3.1988985221077555,-3.0950020567923016,-1.077019515880294
9.504905401,3.1522330794431648,-2.9266377626128577,-1.1952982181655678
9.509905434,3.093659656243647,-2.746081504901559,-1.3160463808224332
9.514905467,3.023997573996915,-2.5536924998042037,-1.438777634284046
9.5199055,2.9441191035997596,-2.3499040344126065,-1.5629596219722768
9.5249055,2.854939666572472,-2.135222563073467,-1.6880154730675754
9.5299055,2.7574076798851643,-1.910226299219142,-1.8133257569653465
9.534905466,2.65249415931488,-1.6755633231799074,-1.9382309074524422
9.539905466,2.541182201491388,-1.4319492287492286,-2.062034098567494
9.544905466,2.424456468326278,-1.1801643323515068,-2.1840045487542215
9.549905499,2.303292799199314,-0.9210504686706713,-2.303381225546856
9.554905532,2.1786480760269944,-0.6555073958339457,-2.41937691988272
9.559905532,2.051450464168809,-0.3844888320600809,-2.5311826571790577
9.564905498,1.9225901481046854,-0.10899814435918162,-2.6379724112249305
9.569905464,1.7929106750198351,0.1699162914496178,-2.738908086419189
9.57490543,1.6632010119285106,0.451166041425493,-2.8331447338196485
9.579905396,1.534188412872814,0.733627858150095,-2.9198359668595524
9.584905396,1.4065321822681356,1.0161492036583486,-2.9981395434233575
9.589905429,1.280818408915286,1.2975540357814161,-3.0672230821862767
9.594905462,1.1575557327958679,1.5766488434104262,-3.1262698825476365
9.599905495,1.0371721936249676,1.852228916026078,-3.174484818802539
9.604905495,0.9200131962484317,2.1230848319766555,-3.2111002799676247
9.609905495,0.8063406132992983,2.3880091482863013,-3.2353821266003813
9.614905461,0.6963330301099229,2.6458032721623943,-3.246635635031394
9.619905461,0.5900871209061038,2.8952844908463637,-3.2442113978623035
9.624905461,0.48762012913552716,3.135293132073812,-3.227511147491057
9.629905494,0.38887340887617594,3.364699822294977,-3.195993466789239
9.634905494,0.293716969153594,3.5824128041539516,-3.1491793478969736
9.639905494,0.20195494913643974,3.7873852688072485,-3.0866575566607986
9.644905494,0.11333193990438055,3.9786226527829673,-3.008089756959168
9.649905494,0.027540057963261592,4.155189843538843,-2.913215346514449
9.654905494,-0.05577333301784575,4.316218232953884,-2.801855954116273
9.65990546,-0.13699736264874052,4.460912553939936,-2.673919547593224
9.66490546,-0.2165489719035802,4.588557432366559,-2.5294041023066733
9.66990546,-0.2948639275804703,4.698523584615256,-2.3684007812891794
9.674905493,-0.3723876533935391,4.7902735902947144,-2.191096580332565
9.679905526,-0.4495659979042435,4.863367169956798,-1.9977763942864424
9.684905526,-0.5268360581009426,4.917465899122784,-1.7888244644428293
9.689905492,-0.6046171748864994,4.952337292631187,-1.5647251709822354
9.694905458,-0.6833022131242787,4.9678581972369775,-1.3260631388860016
9.699905458,-0.7632492342448611,4.964017435413588,-1.0735226304256558
9.704905458,-0.8447736637355879,4.940917649265414,-0.807886202377601
9.709905491,-0.9281410491424477,4.898776300169529,-0.5300326115825211
9.714905491,-1.0135604965541156,4.837925787077998,-0.24093395845325677
9.719905491,-1.1011788649811516,4.758812654239975,0.05834793545245742
9.724905491,-1.1910757886656829,4.661995867430746,0.3666659126948354
9.729905491,-1.283259587236775,4.548144146613542,0.6827926176015638
9.734905491,-1.3776641128855582,4.418032352298992,1.0054263682564422
9.739905457,-1.4741465725711362,4.272536932669669,1.333197737050998
9.744905457,-1.5724863519140775,4.112630448741689,1.6646768062946875
9.749905457,-1.6723848560680343,3.9393752053370084,1.9983810577890693
9.75490549,-1.77346637160211,3.7539160262988425,2.332783847942402
9.75990549,-1.87527994240796,3.5574722230757967,2.6663234130199664
9.76490549,-1.977302242036506,3.35132881645162,2.997412342535716
9.769905456,-2.0789414148192855,3.13682708173298,3.324447452602653
9.774905456,-2.179541848700445,2.9153544979950357,3.645819985263837
9.779905456,-2.2783898338663713,2.6883341918148083,3.9599260544133568
9.784905489,-2.3747200529153303,2.4572139750138398,4.265177253902509
9.789905489,-2.467722840308813,2.223455083953926,4.560011338889093
9.794905489,-2.5565521410076353,1.9885207345798077,4.8429028875957485
9.799905489,-2.640334090395147,1.7538646124909831,5.112373847640754
9.804905489,-2.7181761298542506,1.520919420772772,5.3670038692581095
9.809905489,-2.7891765648619224,1.2910856100693329,5.605440327280482
9.814905455,-2.8524344654234426,1.065720415339491,5.826407934934069
9.819905421,-2.907059802343317,0.846127321771174,6.028717855441616
9.824905421,-2.95218370750783,0.6335460783325095,6.211276222164884
9.829905421,-2.9869687423480054,0.4291433713379072,6.373091984362436
9.834905454,-3.0106190562893578,0.23400426217135292,6.5132840032625134
9.839905454,-3.0223903165987815,0.04912448294497623,6.631087331730294
9.844905454,-3.0215992928509703,-0.124596328544216,6.725858620203082
9.84990542,-3.0076329833229427,-0.28636038750492954,6.797080601858407
9.854905386,-2.9799571768585804,-0.4354764634165829,6.844365621285709
9.859905352,-2.938124351865561,-0.5713634901707553,6.867458183113743
9.864905352,-2.881780823774388,-0.6935530697607454,6.866236509588864
9.869905385,-2.810673063100158,-0.8016908729634317,6.840713108289037
9.874905418,-2.7246531177388573,-0.8955369588482417,6.791034362359928
9.879905451,-2.6236830847839028,-0.9749650520772005,6.717479165470514
9.884905451,-2.5078385884604426,-1.0399608320025313,6.620456631933096
9.889905451,-2.377311231394732,-1.0906192999007631,6.500502919117942
9.894905417,-2.232409996257579,-1.1271412999901107,6.358277204546315
9.899905417,-2.073561583922309,-1.1498292761691198,6.194556864094089
9.904905417,-1.9013096828023344,-1.1590823499216472,6.010231900876191
9.90990545,-1.7163131721276723,-1.1553908058770397,5.80629867694144
9.91490545,-1.5193432697139426,-1.1393300704228064,5.583853002211375
9.91990545,-1.3112796423642235,-1.1115542658515485,5.344082637397917
9.924905416,-1.0931055044610867,-1.072789418070341,5.088259270059561
9.929905382,-0.8659017375488044,-1.0238263901654345,4.817730025487818
9.934905348,-0.6308400707763222,-0.9655136073443679,4.533908576613847
9.939905348,-0.3891753690354344,-0.8987496312503939,4.238265919372246
9.944905348,-0.14223708262835452,-0.8244756337000022,3.932320881748893
9.949905381,0.10858008049936664,-0.7436678119086229,3.617630435965358
9.954905414,0.3618261914216146,-0.6573297795871714,3.2957798839065333
9.959905447,0.616006769487192,-0.5664849611705474,2.9683729859796797
9.964905447,0.8695940000409729,-0.4721690100456586,2.6370221030209198
9.969904847,1.1210384089253183,-0.3754222661109438,2.303338419483012
9.974904813,1.368780895164308,-0.27728226349228424,1.9689223137653347
9.979904813,1.6112650173389071,-0.17877629603086218,1.635353937984958
9.984904146,1.8469494246137181,-0.08091404661661347,1.3041840645068872
9.989903512,2.0743203204548535,0.015319713022514489,0.9769252499598978
9.994902845,2.2919038459925267,0.10897234248228524,0.6550433592640917
9.999901945,2.4982782708233087,0.19913045750482336,0.33994948273147474
10.00490104,2.692085881741534,0.2849269356188497,0.032992269383161216
10.00990015,2.872044464135794,0.36554776739126227,-0.2645493092770978
10.01489948,3.036958275988067,0.44023870432154766,-0.5514727565083785
10.01989944,3.1857284197243163,0.5083116392528628,-0.8266584003451636
10.02489854,3.3173625217872127,0.5691506403089734,-1.08907528202109
10.02989788,3.4309836334214623,0.6222175469041872,-1.3377865574679622
10.03489791,3.5258382691889776,0.6670570282526477,-1.5719543741910162
10.03989791,3.6013035030765397,0.70330100221674,-1.7908441756866462
10.04489724,3.65689304663196,0.730672315507226,-1.9938283797048408
10.04989721,3.6922622398819573,0.7489875945780012,-2.1803893752746566
10.05489718,3.7072118938996907,0.7581591889479105,-2.35012178569048
10.05989718,3.701690933580582,0.758196143923664,-2.502733949597949
10.06489721,3.675797800214841,0.7492041567649115,-2.6380485791440242
10.06989634,3.629780585667091,0.7313844884423746,-2.7560025624089888
10.07489544,3.5640358831820897,0.7050318216458218,-2.8566458868290234
10.07989544,3.4791063535878077,0.6705310739698843,-2.9401396709875995
10.08489544,3.375677019361053,0.6283531925999495,-3.0067533039146572
10.08989544,3.2545703121426968,0.5790499727765348,-3.056860703634596
10.09489544,3.116739911533507,0.5232479565138582,-3.0909357196764415
10.09989541,2.9632634242139346,0.46164148048446635,-3.1095467169784876
10.10489541,2.795333962556552,0.39498495287498364,-3.11335039048438
10.10989541,2.6142506909995484,0.32408444862025565,-3.1030848703266196
10.11489544,2.4214084167076253,0.2497887208929633,-3.079562186649941
10.11989604,2.218286308694554,0.17297973410137849,-3.043660170821946
10.12489604,2.0064358367933597,0.0945628298794742,-2.996313876052379
10.12989601,1.7874680287004376,0.01545664256004136,-2.938506605353924
10.13489664,1.5630401497653665,-0.0634171156539581,-2.871260638404849
10.13989727,1.3348419161833012,-0.1411438771692513,-2.795627751320502
10.14489794,1.1045813577024413,-0.21682632531201299,-2.71267962472195
10.14989887,0.8739704508339087,-0.2895942607224711,-2.6234982359080137
10.1548998,0.6447106478114785,-0.3586141054347051,-2.52916633046112
10.15990074,0.4184784301511703,-0.423097924939326,-2.430758067279107
10.1649005,0.19691101851557946,-0.48231185274389554,-2.3293299288199396
10.1699005,-0.018407627467336898,-0.5355838079715748,-2.225911985236983
10.17490137,-0.22596038497851204,-0.5823104048098069,-2.12149959700324
10.179902,-0.4243099855346835,-0.6219629636628815,-2.01704563550165
10.184902,-0.61211134271504,-0.654092548048273,-1.9134532948835932
10.18990204,-0.7881230626831247,-0.6783339685163782,-1.811569561406455
10.19490274,-0.9512180161721917,-0.6944087145152907,-1.712179398787932
10.19990274,-1.1003928585197245,-0.7021267961387188,-1.616000700367982
10.20490274,-1.2347763939363516,-0.7013874989004072,-1.5236800515779492
10.2099027,-1.353636691409851,-0.6921790748429717,-1.4357893395533052
10.21490267,-1.4563868726471152,-0.6745774112861157,-1.3528232400628306
10.21990353,-1.542589507487506,-0.64874373357853,-1.2751976038204724
10.22490443,-1.6119595691814566,-0.6149214101056502,-1.2032487531776581
10.22990447,-1.6643659201594332,-0.5734319367471494,-1.1372336856154541
10.2349045,-1.699831317443432,-0.5246701843990984,-1.077331163265744
10.23990453,-1.7185309448549762,-0.46909899747933,-1.0236436497821373
10.24490453,-1.720789496237996,-0.40724323381094735,-0.9762000392638944
10.24990453,-1.7070768499460678,-0.33968333710423254,-0.9349591080915564
10.2549045,-1.6780023898495995,-0.2670485325474741,-0.8998136102286195
10.2599045,-1.6343080421102385,-0.19000973393560863,-0.8705949299231207
10.2649041,-1.5768601099650115,-0.10927224762539864,-0.8470782024821977
10.26990413,-1.5066400007848486,-0.025568354868099316,-0.8289878132961257
10.27490413,-1.4247339506820953,0.06035014979088673,-0.8160031869288208
10.27990413,-1.3323218617284425,0.14771939003399623,-0.8077647813605592
10.28490413,-1.2306653749862213,0.23577073866214374,-0.8038802069408146
10.28990413,-1.1210953085655089,0.32373798073541493,-0.8039303948277905
10.29490413,-1.004998593510548,0.4108642455356312,-0.8074757451540623
10.2999041,-0.8838048415582686,0.4964086480780591,-0.8140621904552083
10.30490406,-0.7589726780429887,0.5796525855799709,-0.8232271148606638
10.30990406,-0.6319759708720631,0.6599056394178148,-0.8345050742453589
10.314905,-0.5042900829342911,0.7365110385088697,-0.8474332671599696
10.31990503,-0.3773782707918322,0.8088506455680792,-0.8615567110484018
10.32490503,-0.2526783472354304,0.8763494332015631,-0.8764330830750475
10.32990503,-0.13158971940635383,0.9384794222675552,-0.8916371897809763
10.334905,-0.01546090784995423,0.9947630603889522,-0.9067650346813776
10.339905,0.09442235481960276,1.044776023991071,-0.9214374577256313
10.344905,0.19684835393291517,1.0881494328009682,-0.9353033252298363
10.34990503,0.2906898669775726,1.124571471383735,-0.9480422534839241
10.35490503,0.37491380500753035,1.1537884179808848,-0.9593668538103196
10.35990503,0.4485899519480586,1.1756050866198096,-0.9690244915092924
10.36490503,0.510898740385267,1.1898846941448202,-0.9767985559395721
10.36990503,0.5611380104832152,1.196548169434953,-0.9825092439533596
10.37490503,0.5987287068691955,1.195572927550253,-0.9860138639614815
10.37990499,0.6232194766562473,1.1869911367842396,-0.9872066729316044
10.38490499,0.6342901402204014,1.1708875114803872,-0.9860182634924107
10.38990499,0.6317540148950669,1.1473966678903955,-0.9824145229112906
10.39490503,0.615559080338739,1.1167000842299963,-0.976395189941244
10.39990503,0.5857879829094828,1.079022709366902,-0.9679920393474543
10.40490503,0.542656884877122,1.034629267224718,-0.9572667273292358
10.40990499,0.48651317267740435,0.9838203060011794,-0.944308334088548
10.41490536,0.4178320466440746,0.9269280426915024,-0.9292306425089718
10.41990532,0.3372120227550905,0.8643120542001596,-0.9121691943280806
