Time (s),X (m/s^2),Y (m/s^2),Z (m/s^2)
9.003465,-0.08747297766879707,3.080959223792821,1.2296043041673679
9.013388708,-0.028711625962740274,3.3405353325722236,1.1386893775433853
9.023313708,0.029928260228620638,3.591205197839336,1.040525468633224
9.033237708,0.0882080431917853,3.832067192432338,0.9353097610180255
9.043161708,0.14588731850610412,4.0622602790999025,0.8232876325558087
9.053086708,0.20272516098208615,4.280968838459982,0.704752761157184
9.063010708,0.2584814517377611,4.487427387341835,0.5800469327946363
9.072934708,0.3129182871792404,4.680925167227945,0.44955954369965045
9.082858708,0.3658014668556447,4.860810578018291,0.3137267881390804
9.092783708,0.4169020533753019,5.026495427699163,0.1730305225883178
9.102707708,0.4659979938690516,5.177458964180232,0.027996796566593807
9.112631708,0.512875788904242,5.313251651728152,-0.12080596000580052
9.122556708,0.5573321913130452,5.433498650986404,-0.2727691030945855
9.132480708,0.5991759141639131,5.5379029584161215,-0.42724630410527176
9.142404708,0.6382293242430329,5.62624815817823,-0.5835564511639282
9.152329708,0.6743300952351651,5.698400737283704,-0.7409869287495422
9.162253708,0.7073327937469801,5.754311913651289,-0.8987972794297845
9.172177708,0.7371103718543609,5.794018926844909,-1.0562232468955748
9.182101708,0.7635555421551231,5.817645742912907,-1.2124811929687294
9.192026708,0.7865820150363643,5.825403128057558,-1.3667728734997577
9.201950708,0.8061255822611154,5.8175880508690785,-1.518290550517558
9.211874708,0.8221450352142575,5.7945823794154006,-1.6662224117138802
9.221799708,0.834622909662631,5.75685084731358,-1.8097582633720606
9.231723708,0.8435660514901725,5.704938271791975,-1.948095458493954
9.241647708,0.8490059996251522,5.639466016535453,-2.0804450175270723
9.251572708,0.8509991834222822,5.561127702624237,-2.2060378945958465
9.261496708,0.8496269322751385,5.470684181905453,-2.324131337607927
9.271420708,0.8449952954629725,5.36895779844529,-2.4340152860912294
9.281345708,0.8372346704570324,5.256825975116184,-2.535018746079922
9.291269708,0.8264992383263584,5.135214173736674,-2.6265160768227926
9.301193708,0.8129662055779956,5.005088288394577,-2.7079331196745455
9.311117708,0.7968348527418266,4.867446542594242,-2.778753095462509
9.321042708,0.7783253911996648,4.723310971665386,-2.8385221931090747
9.330966708,0.7576776310330747,4.573718582389342,-2.886854769500104
9.340890708,0.7351494638762762,4.419712291803263,-2.923438078677947
9.350815708,0.7110151658346064,4.262331756213359,-2.948036447653825
9.360739708,0.6855635265336347,4.102604209073733,-2.9604948168582363
9.370663708,0.659095811474748,3.941535432032282,-2.9607415658898852
9.380588708,0.6319235662490912,3.780100986474948,-2.9487905501274474
9.390512708,0.604366272842471,3.619237832445985,-2.92474228127637
9.400436708,0.5767488701663598,3.4598364567731514,-2.888784195491192
9.410360708,0.5493991529746365,3.302733621540435,-2.8411899668081264
9.420285708,0.5226450654916837,3.1487058274553212,-2.782317841320784
9.430209708,0.49681190851301876,2.998463565363663,-2.712607988117637
9.440133708,0.472219481456137,2.852646405805228,-2.6325788849322116
9.450058708,0.4491791835791702,2.7118189540558233,-2.5428227778127215
9.459982708,0.4279911010347567,2.5764676787200167,-2.444000273232758
9.469906708,0.4089411085448191,2.446998606676028,-2.33683413701679
9.479831708,0.3922980164611663,2.323735866441141,-2.2221023871866823
9.489755708,0.37831079587394056,2.206921055910668,-2.1006307778671203
9.499679708,0.36720591597438856,2.096713408558835,-1.9732847792198787
9.509604708,0.35918482870901797,1.9931907335065961,-1.8409611639678054
9.519528708,0.3544216357531674,1.8963511076482529,-1.7045793138422316
9.529452708,0.3530609720522148,1.8061153003598558,-1.5650723588075115
9.539376708,0.3552161385564005,1.722329911452932,-1.4233782588395751
9.549301708,0.3609675140178311,1.644771199472805,-1.280430934411918
9.559225708,0.37036127175384836,1.5731495690268926,-1.1371515498254774
9.569149708,0.38340842265876984,1.507114672821563,-0.9944400531386051
9.579074708,0.40008420124045524,1.4462610691362152,-0.853167075165692
9.588998708,0.42032780725580543,1.3901343626335003,-0.7141662851765218
9.598922708,0.44404251116323123,1.3382377486606152,-0.5782272922816212
9.608847708,0.47109612675343965,1.2900388790324382,-0.4460891707639678
9.618771708,0.5013218491652918,1.2449769694748025,-0.3184346765868789
9.628695708,0.5345194514986146,1.2024700738223948,-0.19588521182072288
9.638620708,0.5704568286828177,1.1619224562883528,-0.0789965838465943
9.648544708,0.6088718731244855,1.1227319994642737,0.031744403607586624
9.658468708,0.6494746627462309,1.084297591239547,0.1359225011234207
9.668392708,0.6919499382284974,1.0460264379415163,0.23319569148544295
9.678317708,0.735959842660312,1.0073412533191173,0.3232959938334767
9.688241708,0.7811468935586199,0.9676872732147387,0.4060294074617749
9.698165708,0.827137154410735,0.9265390437565378,0.48127502306835535
9.708090708,0.8735435705532458,0.8834069270757681,0.5489833427839829
9.718014708,0.9199694324386921,0.8378432640525546,0.6091738620077229
9.727938708,0.9660119284198784,0.789448129899479,0.6619319752381922
9.737863708,1.0112657493302806,0.7378746166742001,0.7074052744172157
9.747787708,1.0553267082702298,0.682833577537131,0.7457993118064997
9.757711708,1.097795340660472,0.6240977705803692,0.7773729002574866
9.767636708,1.1382804512657836,0.5615053448951344,0.8024330222622301
9.777560708,1.176402576263719,0.49496261772343914,0.8213294160729601
9.787484708,1.2117973295980564,0.42444609864734245,0.8344489034117791
9.797409708,1.2441186040234105,0.35000372457988194,0.8422095197982336
9.807333708,1.2730415986165033,0.2717552778067842,0.8450545058768764
9.817257708,1.2982656462116835,0.1898919684940068,0.8434462164387961
9.827182708,1.3195168162527084,0.10467517280429132,0.837860002935066
9.837106708,1.3365502709544557,0.01643432786012177,0.8287781249249474
9.847030708,1.3491523553933205,-0.07443600488721422,0.8166837457328615
9.856954708,1.3571424050389804,-0.16747988585377965,0.8020550671684203
9.866879708,1.3603742570961037,-0.26218452056605285,0.7853596572093187
9.876803708,1.3587374546978033,-0.35798551711262055,0.7670490231122601
9.886727708,1.3521581354353023,-0.45427282498652377,0.7475534807838748
9.896652708,1.3405995979044314,-0.550397292961249,0.7272773696305346
9.906576708,1.3240625418583427,-0.6456777746417635,0.7065946604757954
9.916500708,1.3025849791527029,-0.7394087020804616,0.6858450022301525
9.926425708,1.2762418140128566,-0.8308680407047202,0.6653302504852863
9.936349708,1.245144092355999,-0.919325533128756,0.6453115177245481
9.946273708,1.2094379210685928,-1.0040511353581174,0.6260067800026612
9.956198708,1.1693030593842841,-1.0843235462766,0.6075890684455315
9.966122708,1.1249511860309216,-1.1594387298268232,0.590185265785005
9.976046708,1.0766238478956538,-1.2287183287717631,0.5738755188985367
9.985971708,1.0245900988444088,-1.2915178694069755,0.5586932688774385
9.995895708,0.9691438411693993,-1.3472346582610326,0.5446258914532062
10.00581971,0.9106008869803026,-1.3953152747961812,0.5316159333358114
10.01574471,0.8492957626947517,-1.4352625683987712,0.5195629243862366
10.02566871,0.7855782865039965,-1.4666420734653633,0.5083257413738115
10.03559271,0.7198099559950287,-1.4890877630770074,0.4977254958819204
10.04551771,0.6523601905536803,-1.5023070695272531,0.48754891608978274
10.05544171,0.5836024802467651,-1.5060851087522384,0.4775521890088317
10.06536571,0.513910499047836,-1.500288055509819,0.4674652257149557
10.07528971,0.4436542449066991,-1.4848656270287173,0.4569963068347758
10.08521471,0.373196271587108,-1.4598526447305806,0.445837059029058
10.09513871,0.302888076925445,-1.4253696561750453,0.43366770596953635
10.10506271,0.23306670918849548,-1.3816226119778066,0.4201625302217392
10.11498771,0.16405164797302293,-1.328901604354407,0.404995476474789
10.12491171,0.09614200917195827,-1.267578684505375,0.38784582237596926
10.13483571,0.02961411542172652,-1.198104785014603,0.36840384121130726
10.14476071,-0.03528053542161294,-1.1210057809665512,0.34637638102323676
10.15468471,-0.09831688038595117,-1.0368777300664622,0.3214922873689679
10.16460871,-0.1592974656800184,-0.9463813382318214,0.2935076011478437
10.17453371,-0.21805317938399552,-0.8502357034728938,0.26221046772933165
10.18445771,-0.27444354485656747,-0.7492113978210181,0.22742569811937824
10.19438171,-0.3283565848730972,-0.6441229546768764,0.18901892672929682
10.20430671,-0.37970827370519605,-0.5358208369177335,0.1469003134995063
10.21423071,-0.42844160086688426,-0.4251829689210387,0.10102774095474643
10.22415471,-0.47452527590980836,-0.3131059229292925,0.051409459625935565
10.23407971,-0.5179521083800648,-0.20049585668478948,-0.0018938613823308564
10.24400371,-0.5587371008990196,-0.08825930489106211,-0.058767717700304783
10.25392771,-0.5969152964238441,0.022706068304035966,-0.11904302072697327
10.26385271,-0.6325394232063789,0.13152064512226191,-0.18249604421672344
10.27377671,-0.6656773828137419,0.23733184544564134,-0.2488490874075604
10.28370071,-0.6964096276055401,0.33932282013702564,-0.31777186762649234
10.29362571,-0.724826473936127,0.4367207339206761,-0.38888364536933845
10.30354971,-0.751025395831832,0.5288045280260856,-0.46175607278448555
10.31347371,-0.7751083411387958,0.6149120573701914,-0.535916743131044
10.32339771,-0.7971791087019587,0.6944465037844408,-0.6108534059279779
10.33332271,-0.8173408216637302,0.766881975798581,-0.6860188018512126
10.34324671,-0.835693528870772,0.8317682166074549,-0.7608360634167233
10.35317071,-0.8523319637555985,0.8887343546898122,-0.8347046212731248
10.36309571,-0.8673434878367698,0.9374916456982227,-0.9070065504124758
10.37301971,-0.8808062439924572,0.9778351693665676,-0.977113285279239
10.38294371,-0.8927875427037896,1.0096444610583555,-1.0443926276822644
10.39286871,-0.9033425023379014,1.0328830740108517,-1.1082159667830846
10.40279271,-0.9125129620805881,1.0475970851040002,-1.1679656262756688
10.41271671,-0.9203266832002022,1.0539125738657782,-1.2230422500905869
10.42264171,-0.9267968508269914,1.05203212114497,-1.272872134490224
10.43256571,-0.9319218843323542,1.0422303900611756,-1.316914411349337
10.44248971,-0.9356855597425642,1.0248488669611033,-1.3546679849333811
10.45241471,-0.9380574425210644,1.0002898536023197,-1.385678122876939
10.46233871,-0.9389936236093571,0.9690098132238107,-1.4095426017023156
10.47226271,-0.9384377459621779,0.9315121823648557,-1.4259173085064596
10.48218771,-0.9363223031499074,0.8883397672172108,-1.434521203659005
10.49211171,-0.9325701861862674,0.8400668478251971,-1.4351405546558347
10.50203571,-0.9270964498023768,0.7872911152723049,-1.4276323589408817
10.51196071,-0.9198102650560134,0.7306255656382957,-1.4119268840614732
10.52188471,-0.91061702147311,0.6706904695159359,-1.3880292674449797
10.53180871,-0.8994205389290665,0.6081055270900141,-1.356020135342437
10.54173371,-0.8861253474033588,0.5434823066892008,-1.316055220228251
10.55165771,-0.8706389919331439,0.4774170505534334,-1.2683639766907955
10.56158171,-0.8528743208345793,0.41048391701333764,-1.2132472160649153
10.57150671,-0.8327517175252609,0.3432287150182859,-1.151073798717932
10.58143071,-0.8102012397012144,0.2761631761800688,-1.0822764396040097
10.59135471,-0.7851646337476058,0.209759801745176,-1.0073466974208864
10.60127971,-0.7575971967916052,0.1444473169880483,-0.9268292305117505
10.61120371,-0.7274694635246403,0.08060676265154446,-0.8413154135145657
10.62112771,-0.6947686995106004,0.01856825108302306,-0.7514364173483121
10.63105271,-0.6595001867514847,-0.04139158763850077,-0.6578558610005943
10.64097671,-0.6216882905837474,-0.09905144806742891,-0.5612621468000343
10.65090071,-0.5813772996955587,-0.15424646461072883,-0.46236059228717524
10.66082571,-0.5386320336038718,-0.20686859222739723,-0.36186547240494293
10.67074971,-0.49353821463952285,-0.25686625564479915,-0.260492085500953
10.68067371,-0.4462026044255464,-0.30424328164683595,-0.15894895456483107
10.69059871,-0.39675290787417833,-0.3490571399185137,-0.057930270359161685
10.70052271,-0.3453374506749384,-0.39141652670555116,0.041891324212870555
10.71044671,-0.2921246388882328,-0.4314783315153458,0.13987151815148663
10.72037171,-0.23730221139738794,-0.46944403058048745,0.23540060421211711
10.73029571,-0.18107629745423864,-0.505555552617979,0.32790916785616947
10.74021971,-0.12367029234784163,-0.5400906633074241,0.4168731324564194
10.75014471,-0.06532356450120468,-0.5733579155282787,0.5018181100401052
10.76006871,-0.006290007376089454,-0.6056912134269036,0.5823230178183657
10.76999271,0.05316355027957969,-0.6374440405826769,0.6580229330582734
10.77991771,0.11275906199148837,-0.6689834064896283,0.7286111726290874
10.78984171,0.17220909470536272,-0.7006835713050366,0.793840598304776
10.79976571,0.2312187590263327,-0.7329196156272113,0.8535241634704452
10.80969071,0.28948772394657807,-0.766060928698752,0.9075347298499719
10.81961471,0.34671230148653526,-0.8004646936901714,0.9558041932722857
10.82953871,0.4025875868127835,-0.8364694519902595,0.9983219651178113
10.83946371,0.45680963958300275,-0.8743888297483953,1.0351328612305268
10.84938771,0.5090776923367607,-0.9145055096254073,1.066334453097573
10.85931171,0.5590963714782664,-0.9570655291343222,1.0920739372375863
10.86923671,0.6065779157281393,-1.00227298428643,1.1125445783202266
10.87916071,0.6512443760769936,-1.0502852136291319,1.12798178014514
10.88908471,0.6928297805761743,-1.1012085332595014,1.1386588369986217
10.89900971,0.7310822468989474,-1.1550945880422125,1.1448824166507137
10.90893371,0.7657660254259837,-1.2119373780026548,1.1469878254438488
10.91885771,0.7966634555829405,-1.2716710116145127,1.1453341053054216
10.92878271,0.8235768183897497,-1.3341682293280621,1.1402990118805685
10.93870671,0.8463300688136814,-1.399239731070473,1.1322739222661857
10.94863071,0.8647704325124974,-1.46663433063474,1.1216587199571884
10.95855571,0.8787698526934908,-1.5360399482150802,1.1088567034968793
10.96847971,0.8882262738656188,-1.6070854404668897,1.0942695640166724
10.97840371,0.8930647500683386,-1.6793432559917951,1.0782924755786518
10.98832871,0.8932383656357844,-1.7523328933920317,1.0613093411591983
10.99825271,0.8887289566860429,-1.8255251289193262,1.0436882361916582
11.00817671,0.8795476214229078,-1.89834697096118,1.0257770906905477
11.01810112,0.8657350072546857,-1.970187288963452,1.0078996500699506
11.02802513,0.8473613629938883,-2.04040305499747,0.9903517538779527
11.03794913,0.824526345258351,-2.108326127447846,0.9733979707194438
11.04787413,0.7973585697178955,-2.1732704987020672,0.9572686263273118
11.05779812,0.7660148998770178,-2.234539922571083,0.9421572595846419
11.06772213,0.7306794683883661,-2.2914358324871733,0.92821853777632
11.07764712,0.6915624282383266,-2.343265458116808,0.9155666570889158
11.08757113,0.6488984335112518,-2.389350045622998,0.9042742474176767
11.09749512,0.602944852010236,-2.4290330852129123,0.8943717924977926
11.10742013,0.5539797150772872,-2.461688448754573,0.8858475683472266
11.11734412,0.5022994137533845,-2.4867283402039497,0.878648096125476
11.12726813,0.4482161550537574,-2.5036109624616203,0.8726791004561567
11.13719313,0.39205519756093554,-2.5118478061962413,0.8678069609945886
11.14711713,0.33415189157355213,-2.511010469241376,0.8638606428924913
11.15704112,0.2748485553995657,-2.500736919426396,0.8606340899559961
11.16696613,0.21449122571324078,-2.480737119044093,0.8578890620887328
11.17689013,0.153426325873684,-2.4507979354745295,0.8553583958383629
11.18681413,0.09199730134565078,-2.4107872698567046,0.852749663475081
11.19673913,0.03054127534894155,-2.3606573444172354,0.8497492018615489
11.20666313,-0.030614219997286186,-2.300447099353208,0.8460264771577367
11.21658713,-0.09115438186385127,-2.2302836618550814,0.8412387450183499
11.22651212,-0.15078009136048676,-2.15038286233927,0.8350359585743128
11.23643613,-0.20921063584580055,-2.061048785484224,0.8270658686667957
11.24636013,-0.26618615538034446,-1.9626723555756653,0.8169792534372915
11.25628513,-0.3214697758368311,-1.8557289663967211,0.8044352087575118
11.26620912,-0.3748493977234836,-1.740775175004271,0.7891064283286019
11.27613313,-0.4261391166905782,-1.6184444862496408,0.7706844030137209
11.28605812,-0.4751802588133144,-1.4894422615530096,0.7488844723864692
11.29598213,-0.5218420208651474,-1.3545397922602476,0.723450666197105
11.30590612,-0.5660217126978558,-1.2145675856172617,0.6941602781975718
11.31583113,-0.6076446053688865,-1.0704079201172487,0.6608281187806281
11.32575512,-0.6466633947478592,-0.9229867364023083,0.6233103959463722
11.33567913,-0.6830572960222498,-0.773264939596013,0.5815081763081028
11.34560413,-0.7168307898611336,-0.6222291985738722,0.5353703794774779
11.35552813,-0.7480120460018362,-0.4708823370592115,0.48489626065192715
11.36545212,-0.7766510546299573,-0.3202334203957786,0.4301373380900355
11.37537713,-0.802817499991115,-0.17128765010648825,0.37119872490304356
11.38530113,-0.8265984140751577,-0.025036185488290032,0.3082398285188999
11.39522513,-0.8480956508759346,0.1175539829231768,0.2414743864270438
11.40515013,-0.8674232235699538,0.25554997951976444,0.17116981365602596
11.41507413,-0.8847045478311929,0.3880626793591836,0.09764584643361092
11.42499813,-0.9000696342971188,0.5142559039824952,0.021272478033493244
11.43492312,-0.9136522720096418,0.6333550505182156,-0.05753280358824275
11.44484713,-0.9255872427792307,0.7446550322566909,-0.13830845271611905
11.45477113,-0.9360076042522277,0.8475274163222891,-0.22055294113630608
11.46469613,-0.9450420773310866,0.9414266540435287,-0.3037294256345783
11.47462012,-0.9528125716736506,1.0258953119676706,-0.3872709544369497
11.48454513,-0.9594318812539425,1.1005682258337848,-0.47058615387622976
11.49446912,-0.9650015802392062,1.1651755157239143,-0.5530653318691013
11.50439313,-0.9696101475276829,1.2195444175666534,-0.6340869302731789
11.51431813,-0.9733313460364192,1.2635999038046306,-0.7130242538767142
11.52424213,-0.9762228801281507,1.2973640841371885,-0.789252399805824
11.53416612,-0.978325351379814,1.320954395650909,-0.8621553074717561
11.54409113,-0.9796615292083449,1.334580610162814,-0.9311328456608466
11.55401513,-0.9802359486582589,1.3385407049975773,-0.9956078499480315
11.56393913,-0.9800348428930127,1.333215661471905,-1.0550330204483411
11.57386413,-0.9790264126405301,1.3190632728224971,-1.1088975873045221
11.58378813,-0.9771614291413734,1.2966110598805185,-1.156733649606415
11.59371213,-0.9743741612570651,1.266448408079505,-1.1981220930304264
11.60363712,-0.9705836116018027,1.229218052957472,-1.2326979926952368
11.61356113,-0.9656950411285901,1.1856070527419602,-1.2601554107296602
11.62348513,-0.9596017566757742,1.1363373954307545,-1.2802515028839936
11.63341013,-0.9521871315664802,1.0821563934320828,-1.2928098552422242
11.64333412,-0.9433268253992496,1.023827020511986,-1.2977229809671103
11.65325813,-0.9328911656509806,0.9621183425358808,-1.2949539185402268
11.66318312,-0.9207476506729221,0.897796184536461,-1.2845368876492005
11.67310713,-0.9067635312315561,0.8316141621722829,-1.2665769767545858
11.68303112,-0.8908084261805951,0.7643051872205319,-1.2412488566474007
11.69295613,-0.8727569274256963,0.6965735369453242,-1.2087945355355425
11.70288012,-0.8524911501717503,0.6290875585620583,-1.1695201919104627
11.71280413,-0.8299031863820102,0.5624730642253905,-1.1237921407076654
11.72272913,-0.8048974222042484,0.4973074594495108,-1.0720320055955697
11.73265313,-0.7773926837983968,0.43411463808020073,-1.0147111851245538
11.74257712,-0.7473241807194254,0.3733606686913667,-0.952344712387964
11.75250213,-0.7146452218300162,0.3154502890933074,-0.8854846166594817
11.76242613,-0.6793286851490391,0.26072421623367503,-0.8147129018210081
11.77235113,-0.6413682290275711,0.20945726778508217,-0.7406342610534183
11.78227513,-0.6007792365904779,0.1618572802824357,-0.6638686499697009
11.79219913,-0.5575994883406157,0.11806479913520442,-0.5850438398764506
11.80212413,-0.5118895599934512,0.07815351036564987,-0.504788068472487
11.81204813,-0.4637329450359487,0.04213138306252563,-0.42372289791014217
