Time (s),X (m/s^2),Y (m/s^2),Z (m/s^2)
9.004339083,0.08137594307910286,0.7826408083333474,0.39239907005323016
9.014265083,0.12864232320067426,0.8003188977456202,0.044497824048582796
9.024191083,0.17599301637610376,0.809828932722137,-0.30247089973961633
9.034118083,0.22307004426991284,0.8108332805819286,-0.6468830227399013
9.044044083,0.26951293777414953,0.8030562974086941,-0.9871292023474926
9.053971083,0.31496207131759263,0.7862882072716055,-1.3216271367268977
9.063897083,0.3590619792854072,0.7603886046853977,-1.6488335980290774
9.073823083,0.40146460956347313,0.7252895449449205,-1.9672560628545053
9.083750083,0.4418324719181102,0.6809981780132449,-2.2754638147686324
9.093676083,0.47984164425728537,0.6275988758440393,-2.5720984041096644
9.103603083,0.5151846071916777,0.5652548012167729,-2.8558833649423727
9.113529083,0.5475728853962313,0.4942088677301758,-3.125633105990009
9.123456083,0.5767394817619504,0.41478404459416746,-3.380260909350251
9.133382083,0.6024410964228147,0.32738296559087676,-3.6187859862207628
9.143308083,0.6244601271071887,0.23248680849535708,-3.8403395525297537
9.153235083,0.6426064498244524,0.1306534188493655,-4.04416989983481
9.163161083,0.6567189798143233,0.02251465991440479,-4.229646448523765
9.173088083,0.6666670123927017,-0.09122702117961624,-4.396262781180278
9.183014083,0.672351342407698,-0.20980281245601667,-4.5436386637503725
9.192940083,0.6737051599538747,-0.33238253336265444,-4.671521070811813
9.202867083,0.6706947190403036,-0.4580803902755079,-4.779784238929622
9.212793083,0.6633197751830897,-0.5859614623307307,-4.868428778885042
9.222720083,0.6516137874736521,-0.7150488771515396,-4.937579883471804
9.232646083,0.6356438806127164,-0.8443316240977943,-4.987484672452543
9.242572083,0.6155105626674134,-0.9727729406629679,-5.018508720054342
9.252499083,0.5913471947643322,-1.0993191960414115,-5.031131813067652
9.262425083,0.5633192093625301,-1.2229091851881426,-5.02594298938106
9.272352083,0.5316230739756862,-1.3424837372701424,-5.003634907906128
9.282278083,0.49648499720924266,-1.4569955344334593,-4.964997601535598
9.292204083,0.45815937395440665,-1.5654190303356423,-4.91091166513693
9.302131083,0.41692696690771835,-1.6667603530337072,-4.8423409306468495
9.312057083,0.3730928226224278,-1.7600670738655073,-4.7603246811412125
9.321984083,0.3269839222461946,-1.844437723289552,-4.665969455405376
9.331910083,0.27894656999441486,-1.9190309364342508,-4.5604404941840535
9.341837083,0.22934352622682838,-1.983074115108203,-4.444952879122473
9.351763083,0.17855089669450916,-2.035871498653321,-4.320762415575349
9.361689083,0.12695479494007147,-2.0768115427505345,-4.189156311090573
9.371616083,0.07494780061096716,-2.1053735129886837,-4.051443702558692
9.381542083,0.022925242171704604,-2.121133208950531,-3.9089460867197645
9.391469083,-0.028718662091772054,-2.1237677451219605,-3.762987710736545
9.401395083,-0.07959476585478342,-2.113059327259473,-3.614885981531713
9.411321083,-0.12932301565505766,-2.0888979767268294,-3.4659419540623366
9.421248083,-0.17753648258345367,-2.0512831700238308,-3.317430959172091
9.431174083,-0.2238853517987935,-2.0003243753313216,-3.17059343102144
9.441101083,-0.2680408126388884,-1.9362404817609047,-3.0266259929702226
9.451027083,-0.30969878886353186,-1.8593581300976825,-2.886672860207016
9.460952708,-0.34858344679016723,-1.770108966294462,-2.7518176180212333
9.470879708,-0.38445041877887876,-1.6690258505593385,-2.6230754361402093
9.480805708,-0.4170896806320098,-1.5567380650823066,-2.5013857810860287
9.490732708,-0.44632802416402,-1.433965572166963,-2.3876056890779487
9.500658708,-0.4720310707178446,-1.3015123822541255,-2.282503661022984
9.510585708,-0.4941047778473824,-1.1602590987217238,-2.186754238361395
9.520511708,-0.5124963996819507,-1.0111547138889287,-2.100933313865625
9.530437708,-0.5271948714946465,-0.8552077384787306,-2.0255142249943496
9.540364708,-0.538230600476882,-0.693476754675869,-1.9608646695681988
9.550290708,-0.545674657263922,-0.5270604903155623,-1.907244475290476
9.560217708,-0.5496373757805154,-0.35708751803930794,-1.8648042468950348
9.570143708,-0.5502663818659261,-0.18470568805692514,-1.8335849078419184
9.580069708,-0.5477440833957666,-0.011071406363025492,-1.8135181472986754
9.589996708,-0.5422846659138151,0.16266112802147506,-1.8044277772664545
9.599922708,-0.5341306478797154,0.3353506127866917,-1.806031998952235
9.609849708,-0.5235490582522275,0.5058791456849412,-1.8179465718190375
9.619775708,-0.5108273058815546,0.6731624294912177,-1.8396888729310212
9.629701708,-0.496268814641714,0.8361595682278122,-1.8706828276050862
9.639628708,-0.4801885000465829,0.9938823458630769,-1.9102646842956665
9.649554708,-0.4629081621096565,1.1454038801422701,-1.9576895970942079
9.659481708,-0.4447518655595562,1.2898665462913959,-2.012138969119491
9.669407708,-0.42604137285388993,1.426489069290418,-2.072728500404615
9.679333708,-0.40709168901588494,1.5545726901822607,-2.1385168750398735
9.689260708,-0.3882067715460989,1.6735063216509833,-2.208515014227894
9.699186708,-0.3696754542082659,1.7827706205475755,-2.2816958143719113
9.709113708,-0.3517676300524122,1.8819409197526684,-2.357004282206321
9.719039708,-0.3347307358584017,1.9706889783268744,-2.4333679723281865
9.728965708,-0.3187865766374369,2.0487835268376764,-2.5097076266387512
9.738892708,-0.30412852467500207,2.116089603565697,-2.584947910564412
9.748818708,-0.29091912294329286,2.17256669653819,-2.658028137588017
9.758745708,-0.279288117878221,2.2182657256497778,-2.7279128712912586
9.768671708,-0.2693309418648731,2.2533249181847332,-2.7936022924140387
9.778597708,-0.2611076615315797,2.2779646495522803,-2.854142217237874
9.788524708,-0.2546424041255543,2.2924813387697114,-2.9086336530429024
9.798450708,-0.24992327062833997,2.297240505071939,-2.956241776721592
9.808377708,-0.24690274050058275,2.2926691079108954,-2.996204224047873
9.818303708,-0.24549856859498004,2.279247307319365,-3.0278385797505383
9.828229708,-0.2455951695103798,2.2574997946478397,-3.050548962661104
9.838156708,-0.24704547839174285,2.2279868541956223,-3.063831606226992
9.848082708,-0.24967327013577165,2.191295323182011,-3.0672793433530448
9.858009708,-0.25327591161888524,2.1480296196644417,-3.0605849170539092
9.867935708,-0.25762751445938736,2.0988030039206915,-3.043543056140629
9.877861708,-0.2624824492837864,2.0442292265137767,-3.0160512786499476
9.887788708,-0.26757917642680323,1.984914694369578,-2.9781094133188284
9.897714708,-0.2726443420964647,1.9214512562175239,-2.929817857316551
9.907641708,-0.2773970829449441,1.854409676093154,-2.8713746128987188
9.917567708,-0.28155347577248546,1.7843338351250675,-2.803071165384373
9.927493708,-0.2848310634679742,1.7117356816914033,-2.725287281198096
9.937420708,-0.28695338443845503,1.6370909381090153,-2.6384848193860946
9.947346708,-0.28765443169245053,1.560835565671476,-2.5432006635035536
9.957273708,-0.2866829695088308,1.4833629863269828,-2.4400388925426144
9.967199708,-0.28380663929997596,1.4050220566308467,-2.3296623188791075
9.977125708,-0.27881579050041283,1.3261157864128528,-2.2127835275354264
9.987052708,-0.2715269762693368,1.2469007897708453,-2.090155554355437
9.996978708,-0.26178605783711817,1.1675874489728413,-1.9625623416034341
10.00690571,-0.2494708666228421,1.0883407629165611,-1.830809108854322
10.01683171,-0.2344933807952073,1.0092818421452918,-1.6957127749064218
10.02675771,-0.21680138288876794,0.9304900036968202,-1.5580925620524844
10.03668471,-0.19637957680763216,0.8520054125969401,-1.4187609068807132
10.04661071,-0.17325015501710583,0.7738322130629278,-1.27851479237361
10.05653771,-0.14747281874812446,0.6959420911591219,-1.1381276054297178
10.06646371,-0.11914426460589336,0.6182782111574272,-0.9983416126436947
10.07638971,-0.08839715959431879,0.5407594695997404,-0.8598611353676402
10.08631671,-0.05539863333235679,0.46328501345545314,-0.7233464928131246
10.09624271,-0.020348321596435206,0.38573897126706697,-0.5894087693038047
10.10616971,0.016524000191720675,0.30799534834666403,-0.4586054485519812
10.11609571,0.05496115090422675,0.2299230386363937,-0.33143694363285214
10.12602171,0.09468159877667812,0.15139090647434672,-0.20834403604755322
10.13594871,0.13538278804966516,0.07227289061205713,-0.08970622116516835
10.14587471,0.17674468488437403,-0.00754692043985045,0.024159059154153357
10.15580071,0.21843348820174158,-0.08816929860688298,0.1329963321865103
10.16572771,0.2601054501294865,-0.16967503629989536,0.23661120848991962
10.17565371,0.3014107515043549,-0.2521203271957996,0.3348687568250893
10.18558071,0.3419973808399473,-0.335532442258817,0.4276912102229927
10.19550671,0.38151497019026515,-0.4199057756249799,0.5150550776410705
10.20543271,0.4196185476093795,-0.5051983321843723,0.5969877361888801
10.21535971,0.4559721723078911,-0.5913287239013656,0.6735635768745268
10.22528571,0.49025242418825143,-0.6781737357556965,0.7448997734873614
10.23521271,0.5221517237605774,-0.7655665150300023,0.8111517407448418
10.24513871,0.551381461550881,-0.8532954297170571,0.8725083447692721
10.25506471,0.5776749182869582,-0.9411036331850945,0.929186926345438
10.26499171,0.6007899586086607,-1.0286893629672282,0.9814281951368407
10.27491771,0.6205114819241775,-1.1157069916305307,1.0294910511346567
10.28484371,0.6366536144965259,-1.2017688370870832,1.0736473881634276
10.29477071,0.6490616272320928,-1.2864477283528308,1.1141769332500204
10.30469671,0.657613564339382,-1.3692803106155236,1.1513621749021636
10.31462371,0.6622215692442194,-1.4497710606995045,1.1854834325622143
10.32454971,0.6628328958507518,-1.5273969710047979,1.2168141184158503
10.33447571,0.6594305951854569,-1.601612847341656,1.2456162411244867
10.34440271,0.6520338692847617,-1.671857154478764,1.2721361987984778
10.35432871,0.6406980855564284,-1.7375583332842386,1.2966009056820906
10.36425571,0.6255144457386765,-1.7981415053079384,1.3192142938366138
10.37418171,0.6066093043810814,-1.853035474271252,1.3401542279444754
10.38410771,0.5841431330046795,-1.9016799286345165,1.3595698684055855
10.39403471,0.5583091280725987,-1.9435327448079183,1.3775795149384806
10.40396071,0.5293314635939809,-1.9780772868118448,1.3942689593003674
10.41388671,0.49746319240014575,-2.0048295959197184,1.4096903707489432
10.42381371,0.4629838037228979,-2.023345363666623,1.423861731129989
10.43373971,0.4261964486913576,-2.03322658369953,1.4367668284801283
10.44366671,0.3874248499389139,-2.0341277818501453,1.4483558100399248
10.45359271,0.3470099169009988,-2.0257617290429333,1.458546288835829
10.46352021,0.30530609463650166,-2.0079045481947584,1.4672249928788046
10.47344721,0.26267748091751364,-1.9804001346318876,1.4742499418342234
10.48337321,0.21949375360406131,-1.9431638202942252,1.4794531316263466
10.49330021,0.17612595769694153,-1.8961852250508315,1.4826437021036685
10.50322621,0.13294220856083866,-1.8395302528736683,1.483611556395251
10.51315221,0.09030337388274785,-1.7733422050091512,1.4821313929958957
10.52307921,0.048558801081419446,-1.6978419956015902,1.4779671032027561
10.53300521,0.008042158672511828,-1.6133274672383164,1.4708764779382106
10.54293121,-0.03093254018434947,-1.5201718149353358,1.4606161601176866
10.55285821,-0.06807466542754298,-1.418821137424023,1.4469467721077307
10.56278421,-0.10312038527339076,-1.3097911441380883,1.4296381424327762
10.57271121,-0.1358357086353349,-1.1936630548112983,1.4084745516644948
10.58263721,-0.166019099490045,-1.0710787361218495,1.3832599149283267
10.59256321,-0.1935036143298842,-0.942735126844864,1.353822818624277
10.60249021,-0.21815852178771325,-0.8093780101736339,1.3200213321596512
10.61241621,-0.2398903726418929,-0.6717951995859985,1.2817475210368088
10.62234221,-0.2586434983198685,-0.530809212637833,1.2389315941300634
10.63226921,-0.2743999266168479,-0.38726951483636274,1.1915456240695461
10.64219521,-0.2871787147821788,-0.24204442282602961,1.139606784589912
10.65212221,-0.29703471243892887,-0.09601276220124458,1.0831800525287547
10.66204821,-0.3040567796923881,0.04994461985844529,1.02238032543271
10.67197421,-0.30836549869688895,0.19495338330382095,0.9573739091734133
10.68190121,-0.3101104291683166,0.3381541589805976,0.888379334299233
10.69182721,-0.3094669689214455,0.47871083974949674,0.8156674658115178
10.70175321,-0.3066328884132109,0.6158185910046147,0.7395608794913046
10.71168021,-0.30182461262995597,0.7487114735998952,0.6604324892766559
10.72160621,-0.29527332421694735,0.8766695744650603,0.5787034238147198
10.73153321,-0.28722095902912337,0.9990255438445874,0.4948401642653225
10.74145921,-0.2779161603779083,1.1151704433281602,0.40935096777501184
10.75138521,-0.2676102524199397,1.2245588160544214,0.3227816112185864
10.76131221,-0.2565532874350261,1.3267129000962128,0.23571049869349436
10.77123821,-0.24499021681329933,1.4212259182528484,0.1487431849815689
10.78116421,-0.23315723158854743,1.5077643920654278,0.06250637617760847
10.79109121,-0.22127831513470184,1.5860694443439096,-0.02235852241860983
10.80101721,-0.2095620478502016,1.6559570722968946,-0.10520223282115376
10.81094421,-0.19819870094025727,1.7173173919892455,-0.18537471972940286
10.82087021,-0.18735765346904668,1.7701128738845233,-0.2622325029183361
10.83079621,-0.1771851635288932,1.814375608260941,-0.33514606931559277
10.84072321,-0.16780252071565746,1.8502036579433259,-0.40350728267736885
10.85064921,-0.15930460330902912,1.8777565737090667,-0.4667366849417374
10.86057521,-0.15175885975169176,1.8972501645655568,-0.5242905806865835
10.87050221,-0.14520473004083362,1.908950630540357,-0.5756677948489033
10.88042821,-0.13965351803931564,1.9131681793119708,-0.6204159940845699
10.89035421,-0.13508871995387337,1.9102502593871151,-0.6581374639472607
10.90028121,-0.13146680704951713,1.900574550694993,-0.6884942376186737
10.91020721,-0.12871845233409104,1.8845418571810921,-0.7112124776619164
10.92013421,-0.12675018218887052,1.862569043964781,-0.7260860209751013
10.93006021,-0.12544642558178812,1.835082153013031,-0.732979009765166
10.93998621,-0.12467192612862107,1.802509816120048,-0.7318275486214655
10.94991321,-0.12427447596334676,1.765277063720013,-0.7226403493326133
10.95983921,-0.12408792495582387,1.7237996056993588,-0.7054983492652835
10.96976521,-0.12393541413508359,1.6784786395969151,-0.680553313383093
10.97969221,-0.1236327783481115,1.6296962250424156,-0.6480254522573595
10.98961821,-0.12299206048237406,1.5778112514978655,-0.6082001079543571
10.99954521,-0.12182507825837706,1.52315601811702,-0.5614235767014466
11.00947121,-0.1199469847605353,1.466033438123275,-0.5080981520782244
11.01939721,-0.1171797653778926,1.4067148741629758,-0.44867648519842807
11.02932421,-0.1133556161703528,1.345438604758175,-0.3836553687122267
11.03925021,-0.10832015104837794,1.2824089149105158,-0.3135690589347621
11.04917621,-0.10193538687133832,1.2177957963847366,-0.23898225441544155
11.05910321,-0.09408245678359074,1.1517352360713868,-0.16048284991890677
11.06902921,-0.08466400404502225,1.0843300649118115,-0.07867458320365465
11.07895521,-0.07360621279465557,1.0156513353069236,0.005830310620162639
11.08888221,-0.06086043925568013,0.9457401912122788,0.09241832579559801
11.09880821,-0.04640441624134937,0.8746101917053876,0.1804816874015071
11.10873521,-0.03024301418905074,0.8022500456044365,0.2694250288356368
11.11866121,-0.012408552174822634,0.728626712036778,0.3586716562533063
11.12858721,0.007039338244139294,0.6536888201361293,0.44766932177815605
11.13851421,0.02801428517697843,0.5773703605778876,0.5358954381910577
11.14844021,0.050404166035680625,0.4995946024312087,0.6228616782807386
11.15836621,0.07407248969361203,0.4202781905072159,0.7081179123087011
11.16829321,0.09886014041992958,0.3393353805324334,0.791255447583471
11.17821921,0.12458744769294221,0.2566823715544225,0.8719095453871375
11.18814521,0.1510565415487798,0.17224169650155194,0.9497612026237897
11.19807221,0.17805394941483682,0.08594663221846591,1.0245381984505941
11.20799821,0.20535338721690613,-0.0022544111965130827,1.0960154196025471
11.21792521,0.23271869469573933,-0.0923935660895842,1.1640144919314652
11.22785121,0.25990686255851986,-0.1844792990524323,1.2284027592895475
11.23777721,0.2866710982462228,-0.2784923775894833,1.289091663000391
11.24770421,0.31276387878846545,-0.37438207673844665,1.346034584159675
11.25763021,0.3379399438058265,-0.4720626941666441,1.3992242159375936
11.26755621,0.3619591885206213,-0.571410442736491,1.4486895341212471
11.27748321,0.3845894243235612,-0.672260787658415,1.4944924324419049
11.28740921,0.4056089817270525,-0.7744062916148321,1.5367240861874198
11.29733521,0.42480913660327907,-0.8775950259268261,1.5755011042664433
11.30726221,0.44199634517707387,-0.9815295992768224,1.610961526578934
11.31718821,0.45699427640893353,-1.0858668480694635,1.6432607200294806
11.32711421,0.469645632434525,-1.1902182244192494,1.6725672226373913
11.33704121,0.4798137489787512,-1.2941509089481258,1.6990585811973244
11.34696721,0.4873839685355013,-1.397189665841231,1.7229172243291542
11.35689421,0.492264779972753,-1.4988194467481908,1.74432640994255
11.36682021,0.4943887193289053,-1.5984887381301651,1.7634662842266398
11.37674621,0.49371302800236044,-1.6956136337602923,1.7805100880175473
11.38667321,0.49022006629786347,-1.789582600628109,1.7956205453802574
11.39659921,0.4839174822615212,-1.8797618928825692,1.8089464680782348
11.40652521,0.4748381376376942,-1.9655015551688375,1.8206196080643866
11.41645221,0.4630397942810289,-2.0461419443182045,1.8307517881781048
11.42637821,0.44860456525261233,-2.121020687288606,1.8394323390560054
11.43630421,0.43163813513260896,-2.1894799837584076,1.84672586826859
11.44623121,0.41226875392521256,-2.2508741539021555,1.852670386429258
11.45615721,0.3906460084574842,-2.3045773256383963,1.857275814872707
11.46608183,0.3669393745802673,-2.3499911511083242,1.8605229003568777
11.47600883,0.34133655311445144,-2.3865524394732507,1.8623625634601464
11.48593483,0.31404159275727933,-2.4137405925274864,1.862715708017525
11.49586183,0.28527280435646274,-2.4310847313140656,1.8614735181138768
11.50578783,0.25526047321256207,-2.438170405986211,1.858498265804124
11.51571383,0.2242443794596814,-2.434645787530009,1.8536246459140382
11.52564083,0.19247114109318128,-2.4202272485218415,1.84666164380725
11.53556683,0.16019139964300655,-2.394704250597299,1.8373949291208491
11.54549283,0.12765687439800408,-2.357943468352681,1.8255897554807632
11.55541983,0.09511731703743176,-2.3098920924142847,1.8109943351868183
11.56534583,0.0628174043303302,-2.250580267706085,1.7933436496304738
11.57527183,0.030993612217815773,-2.180122635908242,1.7723636504403626
11.58519883,-0.00012888004142041045,-2.0987189634776495,1.7477758022173986
11.59512483,-0.030339202355186296,-2.0066538485056538,1.7193019142269772
11.60505083,-0.059443666291059634,-1.9042955111526179,1.686669204410221
11.61497783,-0.08726843938227553,-1.7920936831243517,1.6496155336390446
11.62490383,-0.11366196340081602,-1.6705766212889048,1.60789474126092
11.63482983,-0.13849706107095505,-1.5403472790353792,1.5612820057228198
11.64475683,-0.16167267992722523,-1.4020786766163122,1.5095791479687461
11.65468283,-0.1831152279806758,-1.2565085188417981,1.4526197916535275
11.66460883,-0.20277946323420354,-1.1044331153915798,1.3902742936920853
11.67453583,-0.22064890756063887,-0.9467006658427576,1.322454361317772
11.68446183,-0.23673576483047967,-0.7842039782686832,1.2491172771466503
11.69438883,-0.251080333357425,-0.617872696742106,1.1702696608903609
11.70431483,-0.26374991359239286,-0.4486651189228843,1.0859707044604814
11.71424083,-0.2748372233205531,-0.2775596898359121,0.9963348255646786
11.72416783,-0.28445834415193855,-0.10554626195066569,0.9015336929573591
11.73409383,-0.2927502345891754,0.06638278492845429,0.8017975837631377
11.74401983,-0.299867856042527,0.23724146732981904,0.6974160393196913
11.75394683,-0.3059809682747105,0.40605906581722084,0.588737790780035
11.76387283,-0.3112706591353984,0.5718888347943859,0.4761699300445496
11.77379883,-0.3159256792181781,0.73381645089241,0.3601763069525219
11.78372583,-0.3201386544883858,0.8909680959412023,0.24127514155711763
