Time (s),Acceleration x (m/s^2),Acceleration y (m/s^2),Acceleration z (m/s^2)
6.000555692,0.3338249328562425,-0.26587268815007736,-0.07116176010826523
6.005555725,0.6514919592770483,-0.8718187618416677,-0.016350447278258795
6.010555758,0.9388838884116241,-1.4479061327441465,0.04030475370445087
6.015555758,1.1709721998878322,-1.9657547712899701,0.0985534550195299
6.020555758,1.3278032844114898,-2.4013166464006583,0.1569999062680984
6.025555724,1.3963757024644725,-2.7365348526921065,0.21286065847775867
6.030555724,1.3718730882613148,-2.9604039632603314,0.26195667990374777
6.035555224,1.2581269233018333,-3.069376980648326,0.2989544916089977
6.040554357,1.067254375446237,-3.067148739723397,0.3178385713710664
6.04555369,0.8184957344958779,-2.963911981466427,0.31256900963570006
6.05055279,0.5363558771704715,-2.775221734779934,0.27785446348227255
6.05555209,0.24822613387872497,-2.520614821847929,0.20995144649102068
6.060552056,-0.018280954659681502,-2.2221196485911836,0.10738932673847668
6.065551622,-0.23801773498275727,-1.9027663340212053,-0.028480432473845588
6.070551622,-0.39073559937218827,-1.5851787029912001,-0.19319963701134452
6.075551622,-0.46301764644473453,-1.2903054078936202,-0.37924591593375384
6.080551655,-0.44951247095835556,-1.0363308323199514,-0.5764278132419598
6.085551021,-0.3533479052925203,-0.8377965132704517,-0.7726144056480257
6.090550387,-0.1856946552149663,-0.7049572854023567,-0.954737792163459
6.095550387,0.03545621914205567,-0.6433899400115017,-1.1099688722583299
6.10054952,0.28715390102968785,-0.6538642297068845,-1.2269403959837084
6.105549486,0.5437753431244551,-0.7324768683445385,-1.2968810388040122
6.110549486,0.7794940374257052,-0.8710402605877763,-1.3145321640107563
6.115549486,0.9706806615340139,-1.057709862421986,-1.2787430739957666
6.120549519,1.0980104989905262,-1.2778262321618488,-1.1926760450322273
6.125549519,1.148098039893813,-1.514937611408787,-1.0635936093381653
6.130549519,1.114537269502328,-1.7519544849205606,-0.902242611381501
6.135549519,0.998288168037617,-1.9723693686061854,-0.7218891243506482
6.140549519,0.8074089860169428,-2.1614561336188562,-0.537092998141455
6.145549519,0.5561858486823712,-2.307348684255833,-0.36233868946207853
6.150549485,0.2637547414774043,-2.4018944828697193,-0.21065802969696815
6.155549485,-0.04765397867879267,-2.441188698012128,-0.09238813597241231
6.160549485,-0.3546916888405471,-2.4257217420385553,-0.01420099259638409
6.165549518,-0.6349142607572302,-2.3601157693842487,0.021481443074017854
6.170549284,-0.8686724529892998,-2.2524795089884604,0.016610982264762018
6.175549284,-1.040700542202682,-2.113466179102435,-0.02284907487339426
6.18054925,-1.1412600034427167,-1.9551633199263394,-0.0877391706900321
6.18554975,-1.1667378700494369,-1.7899638913927802,-0.16688071031049945
6.19055065,-1.1196557953187178,-1.6295584314978202,-0.24847478649213162
6.19555135,-1.0081093052690222,-1.4841507010043797,-0.32154899673460446
6.200552283,-0.8447186719676675,-1.3619441294128982,-0.3772690473700591
6.205552949,-0.6452245219807189,-1.2688880333996715,-0.4099479195727237
6.210552949,-0.42689536188965055,-1.208625599981363,-0.41762588506377685
6.215553349,-0.20692570120483297,-1.1825606339020645,-0.4021537100312317
6.220553349,-0.000990889235174292,-1.1899613442888035,-0.36877982574400403
6.225553349,0.1779089835258,-1.2280446658345783,-0.3253095195511426
6.230553315,0.32023177280910514,-1.29202590391545,-0.28096030523938703
6.235553981,0.4202713696781102,-1.3751642544189542,-0.24507450067692463
6.240554647,0.4761497270404087,-1.4688721458853025,-0.22586254672809042
6.24555468,0.4894811275866362,-1.562974374504417,-0.22933745659839327
6.250555546,0.46479275147759785,-1.646195327629882,-0.25856502920286534
6.255555546,0.4087960470960396,-1.7069191747007466,-0.31330359688340215
6.260555512,0.32960057087967437,-1.7342146938472534,-0.390052245470656
6.265555512,0.23595043900677046,-1.7190535219959595,-0.4824785682549425
6.270555512,0.13654763160872563,-1.6555899545852175,-0.5821613843727841
6.275555545,0.03950771062733169,-1.5423236213983265,-0.679559094936821
6.280555545,-0.0480282620417727,-1.3829436355395568,-0.7650973846045971
6.285555545,-0.12012615393212907,-1.1866617843665217,-0.8302608374408071
6.290555545,-0.1721601097122004,-0.9678862704868963,-0.8685743774305537
6.295555545,-0.20082658116121557,-0.7451638708008689,-0.8763736665336553
6.300555545,-0.20412446876441762,-0.5394187904890969,-0.8532867687654385
6.305555511,-0.1813514563241709,-0.37162772116813103,-0.8023786426827835
6.310555511,-0.1331492733766226,-0.26017599366823835,-0.7299419209906445
6.315555511,-0.06160177425083306,-0.21822119529185255,-0.6449498354678472
6.320555777,0.029644280931640125,-0.2514316977854327,-0.5582183729206339
6.32555581,0.13529575492201681,-0.3564568432114986,-0.48135268032535383
6.33055581,0.2484432493714095,-0.5204197451847976,-0.4255749878928707
6.335555776,0.3607771790074965,-0.7216079808121684,-0.40054586766697464
6.340555742,0.46303667278751937,-0.9313843134062214,-0.4132958723341652
6.345555708,0.5456954804206589,-1.117168036408971,-0.46737901309935764
6.350555674,0.5998386777010446,-1.246172539712814,-0.5623420463610349
6.355555674,0.6181378920100326,-1.2894540537162855,-0.6935743765571557
6.360555707,0.5958017542558948,-1.2257552384585957,-0.8525650971418648
6.36555574,0.5313684829679522,-1.0446312047547726,-1.0275513271863623
6.370555773,0.42721927120840114,-0.7484262766993147,-1.2045017810303014
6.375555773,0.2897206160326283,-0.35281388621848275,-1.3683466317684785
6.380555773,0.1289455927649979,0.1142049313053657,-1.504341846827705
6.385555739,-0.04202722970331178,0.6147561396932663,-1.5994435487040262
6.390555739,-0.20818913543661316,1.1047379500168302,-1.6435650117943637
6.395555739,-0.3539587963951056,1.5382611849838665,-1.6305958090930808
6.400555772,-0.4646958083830246,1.8724095682344497,-1.559080328490506
6.405555772,-0.5282218325595207,2.071820138779452,-1.4324816246020642
6.410555772,-0.5361914618991279,2.1126089830594954,-1.2589944935773387
6.415555738,-0.4851592785451011,1.9852344470507788,-1.050914898561646
6.420555704,-0.3772094031750962,1.6959916799716803,-0.8236167550337015
6.42555567,-0.220050183169136,1.2669616535075066,-0.5942271817106324
6.43055567,-0.026528283302806824,0.7343864030439373,-0.380123771353375
6.435555703,0.18642101154136964,0.1455993654103482,-0.19739866776891077
6.440555736,0.3993041409665476,-0.445208604328766,-0.05944098319544434
6.445555769,0.5919359322640182,-0.9819772533137988,0.024220869475251712
6.450555802,0.7454513658732069,-1.4120182499047613,0.04870228743009981
6.455555802,0.8442461675029916,-1.6909726138062084,0.014098028692825119
6.460555768,0.8776312850802227,-1.7869735475043877,-0.07465149221516554
6.465555734,0.8410149899042078,-1.683593492847746,-0.20833134723336544
6.470555734,0.7364791162216601,-1.381296331348686,-0.37438166116209887
6.475555734,0.5726850785820162,-0.8972898050428931,-0.5580731630921841
6.480555767,0.3641197082256588,-0.2638524458084912,-0.743801114184886
6.485555767,0.12975927324668193,0.4746341618239945,-0.9163733974460345
6.490555533,-0.10871553405137942,1.2656042328140702,-1.0621864413501134
6.495555533,-0.32898274287736473,2.0527740935633396,-1.1702078840832828
6.500555533,-0.5102263397847617,2.7807410929937295,-1.2327103612360402
6.505555533,-0.6351638022553684,3.399326572954135,-1.2457227561859143
6.510555499,-0.6917541743274033,3.8673252174553374,-1.209184161210726
6.515555499,-0.6744071210814703,4.155388369271733,-1.1268040349792232
6.520555499,-0.5845524526796652,4.247843415374037,-1.0056505813963288
6.525555532,-0.4304882761400522,4.143334346676674,-0.8555066206061384
6.530555532,-0.22650138729509817,3.85426119559941,-0.6880457126729776
6.535555532,0.00866113513377474,3.4050978950984554,-0.5158899744456683
6.540555498,0.25380589742316767,2.829773922724055,-0.35161577793522725
6.545555498,0.48756062300705333,2.168402339508369,-0.20677589746273348
6.550555498,0.6906240395652007,1.4637073190745744,-0.09100729433587187
6.555555531,0.8477275547494283,0.7575307154339643,-0.011291458553835117
6.560555531,0.949077862762409,0.08777066954796263,0.02857310910656028
6.565555531,0.9911209106440338,-0.5139712563848454,0.028240591864032383
6.570555531,0.9765582364203956,-1.0238702604700611,-0.009195872957768378
6.575555531,0.9136432971768962,-1.4264487948035875,-0.07750273619902513
6.580555531,0.8148745124822989,-1.7143199279035934,-0.16786520769740032
6.585555497,0.6952705079080991,-1.8872789622433621,-0.26965874945841184
6.590555463,0.5704523764524689,-1.950972671606283,-0.3713644536529076
6.595640996,0.45476559517462806,-1.9153879205495978,-0.46154597198499603
6.600640996,0.35965498002372437,-1.7933779015434967,-0.5297999440081281
6.605641029,0.29246671762428866,-1.5993946861626624,-0.5675955379047388
6.610641029,0.25579798563280814,-1.3485316823193625,-0.5689315211934283
6.615641029,0.2474511982560529,-1.0559088254819022,-0.5307593414710168
6.620640995,0.26098088286135007,-0.7363666052754421,-0.4531450689885166
6.625640995,0.28675292609298314,-0.4043814883421348,-0.3391683809531852
6.630640995,0.31337630697456575,-0.07408217603080515,-0.19457985205944694
6.635641028,0.32932384332124326,0.24076247450058047,-0.027256368699571012
6.640641261,0.3245363468168479,0.5268963804992904,0.1534921716549814
6.645640594,0.2918073937637096,0.7719428401229571,0.337702896880601
6.650640594,0.227775088188463,0.9650001967194226,0.5155597087591349
6.655640594,0.13340083346773618,1.0974155617126489,0.6781447307192916
6.660640594,0.013886920269800691,1.163622428471254,0.818077715299521
6.66564056,-0.12193571562103872,1.1618816450169158,0.9299902722223262
6.67064056,-0.26264380227900663,1.094747800926462,1.0107986276537544
6.67564056,-0.39552026505387033,0.9691029292978953,1.0597602575084162
6.680640593,-0.5079259108422445,0.7956587590352925,1.0783235522063266
6.685640593,-0.5885612825417895,0.5879209370852331,1.069802240695582
6.690640593,-0.6284718757621395,0.3607169605409986,1.0389239557806658
6.695640559,-0.6217066162017522,0.12849004600377362,0.9913121653355225
6.700640525,-0.5656042228369417,-0.09637128105362867,0.9329614734281028
6.705640491,-0.4607424087769654,-0.30488228522269467,0.8697586241619162
6.710640491,-0.3106303173437673,-0.4922466504517647,0.8070876365088085
6.715640491,-0.12124771914519625,-0.6579271734579247,0.749540623330529
6.720640524,0.09946783437680269,-0.8049809077470039,0.7007394668365748
6.725640557,0.34210980361433957,-0.9387754875889771,0.6632604235329174
6.73064059,0.5962302762915889,-1.0653246263620328,0.6386453922798869
6.73564059,0.8507095507574629,-1.1895583207386038,0.6274799194418054
6.74064059,1.0941008451123173,-1.313858631697833,0.6295177194037489
6.745640556,1.314996514519312,-1.4371407982363555,0.6438328629280963
6.750640556,1.5024580613129677,-1.5546533594206846,0.6689826438532032
6.755640556,1.646534408331143,-1.6585337779204303,0.7031661844148792
6.760640589,1.7388662792763785,-1.7390171907011203,0.7443664149244117
6.765640589,1.7733435957799233,-1.7860822376592111,0.7904664502094325
6.770640589,1.7467520620467933,-1.7912475309015803,0.8393353782450094
6.775640555,1.6593203852506857,-1.7492128241047888,0.8888826101043182
6.780640521,1.515067908971176,-1.659069382134868,0.9370838577360279
6.785640487,1.3218596485164589,-1.524877283456205,0.9819851039672927
6.790640487,1.0911034269142148,-1.3555110793831084,1.0216929903414458
6.795641187,0.8370682233181637,-1.1637922869052015,1.0543605307191128
6.80064122,0.5758560888948722,-0.9650374017045303,1.07817635717185
6.805641253,0.32411285347683727,-0.7752347478003679,1.0913645042961548
6.810641253,0.0976070929700118,-0.6091109086489589,1.0922002363334857
6.815641253,-0.09016425365300276,-0.47835504335401785,1.0790453617627556
6.820641219,-0.2291771768992824,-0.3902402845819788,1.0504039325671235
6.825641185,-0.3137388364547202,-0.3468213036980047,1.0049969986067173
6.830641185,-0.34289349055146323,-0.3448037808567975,0.941854061741692
6.835641218,-0.3203261265088857,-0.37608601334381897,0.8604188579851064
6.840641251,-0.25378156169310545,-0.42887953474059815,0.7606666074500278
6.845641251,-0.1540812995020545,-0.48923946002699764,0.6432273882834131
6.850641251,-0.03387123017830594,-0.5427883441023557,0.5095056838585982
6.855641251,0.09373707981881475,-0.5764056493232195,0.3617807793803795
6.860641251,0.21646402530230585,-0.5796774474042736,0.20326838704006725
6.865641251,0.3239508107512301,-0.5459504199546252,0.03812224755138943
6.870641217,0.4085313119538265,-0.47289920195212976,-0.12864322952653756
6.875641217,0.46563003399975916,-0.3625846760338274,-0.2913211253182907
6.880641217,0.4937832054702544,-0.2210434317137906,-0.4437712544869591
6.88564125,0.49432825378053447,-0.05749892226936936,-0.5797569309664098
6.89064125,0.4708426894954459,0.11668110213684428,-0.6933331388067463
6.89564125,0.42843294059305226,0.28914073992694206,-0.7792520885696141
6.900641216,0.3729767891107969,0.44766857378166075,-0.8333503156169086
6.905641216,0.310413003343728,0.5811892300689138,-0.8528845825573909
6.910641216,0.246153062847372,0.6805281943882631,-0.8367891412847498
6.915641249,0.18466599832973904,0.7389034073713252,-0.7858319433704288
6.920641249,0.12926014199018324,0.7521385075423476,-0.7026515517744496
6.925641249,0.0820567386678194,0.7186310453293419,-0.591661336206152
6.930641249,0.044123051610507995,0.6391394193456384,-0.4588155026787811
6.935641249,0.01571102476289296,0.5164701130797456,-0.3112438418685142
6.940641249,-0.003464614795120977,0.35514950296141556,-0.15677730651021396
6.945641215,-0.013975732634606925,0.1611522692410085,-0.0034013045804633657
6.950641181,-0.01651365629972417,-0.05826646708874758,0.1413151174938056
6.955641181,-0.011840151863205054,-0.2946223851504591,0.2707600378446736
6.960641214,-0.0008623155762993251,-0.5381629523205266,0.3797357849241056
6.965641247,0.015194024981108245,-0.7778031943250877,0.464786921506054
6.970641247,0.034565457679757196,-1.0011321964263982,0.5243686780553403
6.975641247,0.05475805441400836,-1.194601227068756,0.5588450085557142
6.980641213,0.07245599158930728,-1.3439953988789557,0.570325716768587
6.985641179,0.08359493662824656,-1.4352530591227775,0.5623692760074225
6.990641145,0.08363515161383892,-1.4556325640477843,0.5395892155265939
6.995641145,0.06802993844871687,-1.3951453553228168,0.5072062870986741
7.000641178,0.03284241350974664,-1.2480946714490941,0.4705874050589567
7.005641211,-0.024573624669017295,-1.0144996196483946,0.43480830447525437
7.010641244,-0.1049370425539718,-0.7011595894944864,0.4042718490587241
7.015641244,-0.20656077823443517,-0.32213197407067323,0.382407599505188
7.020641244,-0.3251302830092942,0.10154344403823219,0.37146930766244424
7.02564121,-0.4538051115981044,0.5429461053376734,0.37243549662243575
7.03064121,-0.583665033387545,0.9711633725089798,0.3850064601481707
7.035640543,-0.7044732925050732,1.3538177475623214,0.4076819874771445
7.040639676,-0.8056845131423946,1.6599943949928027,0.43790001804538864
7.045639009,-0.8775892150938126,1.8632731650323298,0.47221731199964095
7.050639009,-0.9124646215627934,1.944547469045682,0.5065173252835612
7.055638309,-0.9055938985132265,1.894323513721599,0.5362355319944646
7.060637609,-0.8560234169938132,1.7142328557401116,0.5565969842460092
7.065637575,-0.7669497869099295,1.417555329111587,0.5628646392779418
7.070637575,-0.6456643614690253,1.0286351977105328,0.550600084115523
7.075637175,-0.5030306092324056,0.5811769744323081,0.5159403736740968
7.080636308,-0.35252537939490625,0.11552224831734385,0.45589438124972936
7.085635674,-0.20893260059437885,-0.32487516021441715,0.3686576268652709
7.090635707,-0.08682928570490663,-0.6974554113811348,0.253935370044367
7.09563504,0.0009601576889401149,-0.9646456467519203,0.11325102360560457
7.10063504,0.04475238207866051,-1.0976130901071761,-0.049796879541515224
7.105635006,0.03906197291250593,-1.0792693199021999,-0.22937789810294437
7.110635006,-0.016806663300001915,-0.9061850047355355,-0.4174285001650322
7.115635006,-0.11870460894412292,-0.5891871822594746,-0.6038596097321285
7.120635039,-0.2581211014854188,-0.15255667700855774,-0.7770116683342585
7.125635039,-0.42313226511181506,0.3680969233733319,-0.924368704406214
7.130635039,-0.599686158593431,0.9290551109662537,-1.033504890868608
7.135635039,-0.7730594592813872,1.4824609506415616,-1.0931941275929176
7.140635039,-0.9293145036946758,1.9806297753562008,-1.0945737136105136
7.145635039,-1.0566039819441773,2.3802778238068836,-1.0322258112687939
7.150635005,-1.1462051007743477,2.6462815697132194,-0.9050316060369488
7.155635005,-1.1932053224098917,2.7546486353239668,-0.716666126632063
7.160635005,-1.1968013089687646,2.694469469944785,-0.4756367863651878
7.165635038,-1.1602092984644012,2.4687178470131514,-0.1948225994507861
7.170635038,-1.0902185201932888,2.093870304200172,0.10946352738663354
7.175635038,-0.9964482864643203,1.598413094295365,0.4188008688785641
7.180635004,-0.8903914701122054,1.0203934930470642,0.7142321350577018
7.18563567,-0.7843394881732456,0.404244668891985,0.9779035872449254
7.19063657,-0.6902856527639437,-0.20283459358267872,1.1945904078990621
7.19563727,-0.6188962206579097,-0.7546350943267016,1.3529407724740572
7.200637303,-0.5786245956608227,-1.209513320126742,1.4463089626634917
7.205637969,-0.5750267823371698,-1.533496853541958,1.4730993558088799
7.210638635,-0.6103173269814178,-1.7026756211893448,1.4366032521633545
7.215638635,-0.6831860046567191,-1.7047064701168482,1.3443720543404531
7.220638635,-0.7888779583441,-1.5393462813084204,1.2072253380757552
7.225639035,-0.9195256902370651,-1.2180232589562567,1.0380331751744953
7.230639901,-1.0647115329160513,-0.762544186426876,0.8504324981359083
7.235639901,-1.2122333883116976,-0.20310478818485575,0.6576340171642893
7.240639901,-1.349041367136879,0.4241872978383548,0.47144991388913565
7.245640601,-1.4623037325547916,1.0800533602304478,0.3016282082189372
7.250640601,-1.5405439980779112,1.7248335995744255,0.1555255750097749
7.255640601,-1.574768233058855,2.3211348991253753,0.03809597566399304
7.260640567,-1.5594784082664492,2.836175006432767,-0.04787358607792504
7.265640533,-1.4934524032984846,3.243693791858271,-0.10137981166338117
7.270640499,-1.3801720456104274,3.5253348395404456,-0.12278302138958325
7.275640499,-1.2278020569125938,3.67143435263878,-0.11344973119117042
7.280640532,-1.0486653285136212,3.6811905671350855,-0.07552563998830583
7.285640565,-0.8582194415040645,3.5622263002397045,-0.011861024495299728
7.290640598,-0.6736081633913332,3.329598735078982,0.0739385347595964
7.295640598,-0.5119292722956531,3.0043503448115096,0.1774034539359689
7.300640598,-0.38841402684852877,2.611727466246367,0.29312200543202227
7.305640564,-0.3147419004517479,2.179213149594189,0.41477775370065456
7.310640564,-0.2977087550541683,1.7345257545891992,0.535360445615168
7.315640564,-0.33842608196633317,1.3037252711602958,0.6475651662606984
7.320640597,-0.4321593685996319,0.9095496710204046,0.7443475340047838
7.32564063,-0.5688273117871676,0.5700793692319084,0.8195638506070946
7.33064063,-0.7340961068211797,0.2978038653456925,0.8686026778902456
7.335640596,-0.9109294651649422,0.09914259753906551,0.8889107165798363
7.340640562,-1.0814058844408831,-0.025550055496881142,0.8803289266837995
7.345640528,-1.2285937026855132,-0.08149225434488837,0.8451802114498115
7.350640494,-1.3382791507521976,-0.07852629737154306,0.7880828009094204
7.355640494,-1.400367423316596,-0.029790194958477553,0.7154988336919277
7.360640527,-1.4098162524424545,0.04986605777128252,0.6350610365206396
7.36564056,-1.3670116099257903,0.14555156508341882,0.5547481691155244
7.370640593,-1.2775530462580396,0.2439005880382899,0.481999497718845
7.375640593,-1.1514784582966588,0.3343461652107519,0.4228684194971844
7.380640593,-1.0020196913859716,0.40995166147223244,0.38131448808253027
7.385641226,-0.8440343064368648,0.4677155545904907,0.3587210570810809
7.390641226,-0.6922972837240657,0.5083438495577368,0.3537032356148854
7.395641226,-0.5598527358318031,0.535561501261685,0.3622398912241543
