Time (s),X (m/s^2),Y (m/s^2),Z (m/s^2)
4.003303167,0.3079096985,-9.86029541,0.04550537109
4.013230167,0.3567082214,-9.857002258,0.06137237549
4.023157167,0.4019142151,-9.847871246,0.06316864014
4.033084167,0.450712738,-9.859546967,0.0672102356
4.043011167,0.5002597046,-9.862241364,0.04805007935
4.052938167,0.5569917297,-9.838141479,0.01751358032
4.062864167,0.5840853882,-9.820178833,0.01347198486
4.072791167,0.5903723145,-9.814340973,-0.01422042847
4.082718167,0.5932164001,-9.811496887,-0.02395019531
4.092645167,0.60025177,-9.840536499,-0.0470022583
4.102572167,0.5974076843,-9.865983582,-0.04221221924
4.112499167,0.5884263611,-9.869875488,-0.04670288086
4.122426167,0.5754034424,-9.856553192,-0.03951782227
4.132353167,0.5580395508,-9.838889923,-0.007185058594
4.142279167,0.5363346863,-9.844578094,0.01556762695
4.152206167,0.5111869812,-9.838141479,0.04131408691
4.162133167,0.5044509888,-9.838141479,0.03891906738
4.172060167,0.4960684204,-9.872569885,0.03921844482
4.181987167,0.5090913391,-9.89307724,0.04236190796
4.191914167,0.5164260864,-9.886640625,0.03158432007
4.201841167,0.499511261,-9.874066772,0.04894821167
4.211768167,0.4812492371,-9.857002258,0.08337661743
4.221695167,0.4677772522,-9.828112335,0.1052311707
4.231621167,0.4541555786,-9.800419922,0.09475296021
4.241548167,0.420176239,-9.787247314,0.09145980835
4.251475167,0.3984713745,-9.823621674,0.08861572266
4.261402167,0.3811074829,-9.857451324,0.0556842041
4.271329167,0.3728746033,-9.884245605,0.03143463135
4.281256167,0.3555107117,-9.890233154,0.06182144165
4.291183167,0.3610491943,-9.855505371,0.05089416504
4.301110167,0.3677851868,-9.808353424,0.01930984497
4.311037167,0.3776646423,-9.793833618,0.007783813477
4.320963167,0.3815565491,-9.793384552,0.005388793945
4.330890167,0.4070036316,-9.812544708,0.002245330811
4.340817167,0.4129911804,-9.847272491,-0.003592529297
4.350744167,0.4158352661,-9.893526306,0.02365081787
4.360671167,0.4188290405,-9.907597046,0.04745132446
4.370598167,0.417481842,-9.877210236,0.06571334839
4.380525167,0.4083508301,-9.840686188,0.04894821167
4.390452167,0.4227209473,-9.846973114,0.0390687561
4.400378167,0.4498146057,-9.846673737,0.03382965088
4.410305167,0.452359314,-9.836045837,0.04355941772
4.420232167,0.4327500916,-9.833800507,0.03203338623
4.430159167,0.4111949158,-9.816885681,0.04415817261
4.440086167,0.3905378723,-9.844428406,0.04176315308
4.450013167,0.3838018799,-9.874665527,0.02724334717
4.459940167,0.4144880676,-9.897867279,0.0260458374
4.469867167,0.4378395081,-9.887389069,0.004790039062
4.479794167,0.4525090027,-9.846673737,-0.02230361938
4.489720167,0.4763095093,-9.830657043,-0.03143463135
4.499647167,0.499511261,-9.852361908,-0.05089416504
4.509574167,0.5550457764,-9.858648834,-0.03053649902
4.519501167,0.5746549988,-9.845775604,-0.01796264648
4.529428167,0.5830375671,-9.807754669,-0.02664459229
4.539355167,0.5769003296,-9.768835602,-0.03652404785
4.549281667,0.5777984619,-9.798923035,-0.03023712158
4.559208667,0.5918692017,-9.838291168,-0.03293151855
4.569134667,0.5990542603,-9.881700897,-0.02634521484
4.579061667,0.5821394348,-9.909542999,-0.0005987548828
4.588988667,0.5436694336,-9.88020401,-0.004939727783
4.598915667,0.4984634399,-9.872569885,0.01766326904
4.608842667,0.4653822327,-9.881700897,0.03098556519
4.618769667,0.4355941772,-9.871522064,0.02993774414
4.628696667,0.4068539429,-9.856253815,0.04730163574
4.638623667,0.374072113,-9.818083191,0.04206253052
4.648549667,0.3411405945,-9.76554245,0.01317260742
4.658476667,0.3248245239,-9.764494629,-0.0008981323242
4.668403667,0.3668870544,-9.807455292,-0.008232879639
4.678330667,0.419128418,-9.853709106,-0.005987548828
4.688257667,0.4692741394,-9.914632416,0.007634124756
4.698184667,0.5053491211,-9.958191833,0.02574645996
4.708111667,0.5132826233,-9.971364441,0.02948867798
4.718038667,0.5194198608,-9.968071289,0.04071533203
4.727965667,0.5019062805,-9.901908875,0.06152206421
4.737891667,0.4516108704,-9.816436615,0.03203338623
4.747818667,0.3978726196,-9.756561127,0.01152603149
4.757745667,0.3597019958,-9.736951904,-0.0004490661621
4.767672667,0.3303630066,-9.76554245,-0.02469863892
4.777599667,0.3483256531,-9.848320312,-0.03996688843
4.787526667,0.3989204407,-9.909692688,-0.03113525391
4.797453667,0.4403842163,-9.946665802,-0.01407073975
4.807380667,0.4846920776,-9.952503662,0.001646575928
4.817306667,0.523611145,-9.90131012,0.03338058472
4.827233667,0.5486091614,-9.813293152,0.05149291992
4.837160667,0.5382806396,-9.754465485,0.04924758911
4.847087667,0.5370831299,-9.748627625,0.03158432007
4.857014667,0.5218148804,-9.803862762,0.01122665405
4.866941667,0.5150788879,-9.882748718,-0.01511856079
4.876868667,0.4974156189,-9.915829926,-0.03113525391
4.886795667,0.452359314,-9.892328796,-0.02559677124
4.896721667,0.4204756165,-9.852960663,-0.03607498169
4.906648667,0.4101470947,-9.826765137,-0.0347277832
4.916575667,0.4273612976,-9.802066498,-0.0426612854
4.926502667,0.4444258118,-9.796827393,-0.04385879517
4.936429667,0.4896318054,-9.817783813,-0.03592529297
4.946356667,0.5313949585,-9.852212219,-0.03233276367
4.956283667,0.5819897461,-9.8790065,-0.02769241333
4.966210667,0.5968089294,-9.881551208,-0.01571731567
4.976137667,0.5962101746,-9.885443115,0.003293151855
4.986063667,0.5899232483,-9.897867279,0.005837860107
4.995990667,0.5758525085,-9.902956696,0.007035369873
5.005917667,0.5417234802,-9.884245605,0.009729766846
5.015844667,0.5041516113,-9.864187317,-0.005239105225
5.025771667,0.4607418823,-9.828561401,-0.01586700439
5.035698667,0.4240681458,-9.80760498,-0.03457809448
5.045625667,0.4176315308,-9.800120544,-0.03577560425
5.055552667,0.4182302856,-9.816286926,-0.02514770508
5.065478667,0.4465214539,-9.835447083,0.005538482666
5.075405667,0.4956193542,-9.845176849,0.02484832764
5.085332667,0.5418731689,-9.871522064,0.03248245239
5.095259667,0.6054908752,-9.88604187,0.02215393066
5.105186667,0.6545887756,-9.888885956,0.01137634277
5.115113667,0.6658154297,-9.873468018,0.02335144043
5.125040667,0.6499484253,-9.848470001,0.008232879639
5.134967667,0.6011499023,-9.830806732,-0.003592529297
5.144893667,0.5569917297,-9.822274475,-0.001496887207
5.154820667,0.5132826233,-9.830357666,-0.01646575928
5.164747667,0.4938230896,-9.844727783,-0.02679428101
5.174674667,0.4691244507,-9.848320312,-0.03442840576
5.184601667,0.4391867065,-9.854307861,-0.033230896
5.194528667,0.4299060059,-9.859397278,-0.002544708252
5.204455667,0.4378395081,-9.852212219,0.01601669312
5.214382667,0.4622387695,-9.848769379,0.01706451416
5.224308667,0.4879852295,-9.835147705,0.01167572021
5.234235667,0.510737915,-9.819280701,0.0001496887207
5.244162667,0.5084925842,-9.818083191,-0.0004490661621
5.254089667,0.5159770203,-9.837692413,0.01137634277
5.264016667,0.5057981873,-9.857900391,0.02634521484
5.273943667,0.4848417664,-9.868079224,0.04595443726
5.283870667,0.4544549561,-9.8697258,0.02679428101
5.293797667,0.4465214539,-9.866432648,0.0122744751
5.303723667,0.4438270569,-9.84622467,0.001496887207
5.313650667,0.4555027771,-9.836794281,0.008831634521
5.323577667,0.4644841003,-9.838590546,0.01062789917
5.333504667,0.4529580688,-9.858798523,0.01002914429
5.343431667,0.4580474854,-9.858050079,0.001796264648
5.353358667,0.4622387695,-9.863438873,-0.003592529297
5.363285667,0.4505630493,-9.849368134,-0.002694396973
5.373212667,0.4646337891,-9.833950195,0.01002914429
5.383138667,0.4918771362,-9.851314087,0.002395019531
5.393065667,0.519868927,-9.871372375,-0.001945953369
5.402992667,0.5460644531,-9.891280975,-0.02439926147
5.412919667,0.573457489,-9.90355545,-0.02724334717
5.422846667,0.5911207581,-9.909393311,-0.007035369873
5.432773667,0.6062393188,-9.918224945,0.01796264648
5.442700667,0.6054908752,-9.912387085,0.01766326904
5.452626667,0.595461731,-9.883796539,0.03098556519
5.462553667,0.6134243774,-9.850415955,0.03263214111
5.472480667,0.6243516541,-9.83335144,0.03667373657
5.482407667,0.62599823,-9.801168365,0.04355941772
5.492334667,0.6164181519,-9.788744202,0.03098556519
5.502261667,0.5986051941,-9.775122528,0.02245330811
5.512188667,0.5538482666,-9.762548676,0.004939727783
5.522115667,0.4891827393,-9.769883423,0.0007484436035
5.532041667,0.4311035156,-9.827962646,0.003592529297
5.541968667,0.3721261597,-9.873617706,0.01317260742
5.551896167,0.324225769,-9.882000275,0.01541793823
5.561823167,0.2953358459,-9.875264282,0.001646575928
5.571750167,0.2652484131,-9.882748718,0.01466949463
5.581677167,0.2616558838,-9.87780899,0.03876937866
5.591604167,0.2643502808,-9.865085449,0.04730163574
5.601531167,0.2851570129,-9.839488678,0.03951782227
5.611457167,0.3135978699,-9.851912842,0.01856140137
5.621384167,0.3466790771,-9.852960663,-0.004790039062
5.631311167,0.3847000122,-9.845476227,-0.01317260742
5.641238167,0.4267625427,-9.842332764,0.004041595459
5.651165167,0.4502636719,-9.844578094,0.004640350342
5.661092167,0.4537065125,-9.856104126,0.03742218018
5.671019167,0.4730163574,-9.85685257,0.08143066406
5.680946167,0.5028044128,-9.832602997,0.09295669556
5.690872167,0.5001100159,-9.841883698,0.1043330383
5.700799167,0.5095404053,-9.86733078,0.102387085
5.710726167,0.5162763977,-9.853110352,0.09175918579
5.720653167,0.5040019226,-9.844877472,0.06780899048
5.730580167,0.4778063965,-9.845775604,0.02993774414
5.740507167,0.4643344116,-9.838889923,0.009580078125
5.750434167,0.4555027771,-9.839189301,-0.01466949463
5.760360167,0.4403842163,-9.834249573,-0.01960922241
5.770287167,0.4577481079,-9.842332764,0.001796264648
5.780214167,0.4623884583,-9.842332764,0.03772155762
5.790141167,0.4613406372,-9.863289185,0.06406677246
5.800068167,0.4629872131,-9.879305878,0.08981323242
5.809995167,0.4695735168,-9.880503387,0.1113684082
5.819922167,0.4604425049,-9.880353699,0.1318757629
5.829849167,0.457149353,-9.881551208,0.1586700439
5.839775167,0.4583468628,-9.88604187,0.1422042847
5.849702167,0.4477189636,-9.88604187,0.1246907043
5.859629167,0.4456233215,-9.875713348,0.09250762939
5.869556167,0.440533905,-9.867630157,0.05403762817
5.879483167,0.436791687,-9.862091675,0.03742218018
5.889410167,0.4213737488,-9.84742218,0.01930984497
5.899337167,0.4044589233,-9.843380585,0.002844085693
5.909264167,0.3867956543,-9.829010468,0.002245330811
5.919190167,0.3752696228,-9.818532257,0.003592529297
5.929117167,0.3855981445,-9.820927277,-0.002993774414
5.939044167,0.3847000122,-9.813592529,0.0001496887207
5.948971167,0.3920347595,-9.802216187,0.0002993774414
5.958898167,0.3902384949,-9.795629883,0.007933502197
5.968825167,0.4059558105,-9.81,0.02260299683
5.978752167,0.4272116089,-9.818831635,0.03158432007
5.988678167,0.4384382629,-9.828561401,0.04894821167
5.998605167,0.4397854614,-9.857301636,0.07244934082
6.008532167,0.4323010254,-9.867480469,0.08652008057
6.018459167,0.429307251,-9.89068222,0.09924362183
6.028386167,0.4441264343,-9.889185333,0.1154100037
6.038313167,0.4564009094,-9.886191559,0.1320254517
6.048240167,0.4604425049,-9.884245605,0.1296304321
6.058167167,0.4725672913,-9.881850586,0.1209484863
6.068093167,0.4870870972,-9.875413971,0.1028361511
6.078020167,0.4887336731,-9.858050079,0.07454498291
6.087947167,0.4803511047,-9.847272491,0.06481521606
6.097874167,0.4601431274,-9.892328796,0.05433700562
6.107801167,0.4637356567,-9.915081482,0.04580474854
6.117728167,0.4273612976,-9.911339264,0.04909790039
6.127655167,0.4116439819,-9.878407745,0.02664459229
6.137581167,0.4007167053,-9.865983582,0.03068618774
6.147508167,0.417481842,-9.847122803,0.02155517578
6.157435167,0.4343966675,-9.827214203,-0.01077758789
6.167362167,0.4337979126,-9.822274475,-0.0137713623
6.177289167,0.43409729,-9.828262024,-0.001646575928
6.187216167,0.4242178345,-9.805659027,0.01916015625
6.197143167,0.445922699,-9.808952179,0.009131011963
6.207069167,0.4757107544,-9.822424164,-0.01257385254
6.216996167,0.5141807556,-9.816885681,-0.01796264648
6.226923167,0.5638774109,-9.816885681,-0.02978805542
6.236850167,0.6203100586,-9.818382568,-0.02275268555
6.246777167,0.6551875305,-9.813442841,-0.01871109009
6.256704167,0.6718029785,-9.791588287,-0.003293151855
6.266631167,0.6429130554,-9.798024902,0.03697311401
6.276558167,0.6096821594,-9.817783813,0.07170089722
6.286484167,0.5563929749,-9.849068756,0.09804611206
6.296411167,0.476459198,-9.884694672,0.1055305481
6.306338167,0.3897894287,-9.896520081,0.09879455566
6.316265167,0.3118016052,-9.916728058,0.07259902954
6.326192167,0.2483335876,-9.913883972,0.03248245239
6.336119167,0.1911524963,-9.869276733,0.01242416382
6.346046167,0.1326242065,-9.835896149,0.01886077881
6.355972167,0.09295669556,-9.817484436,0.02739303589
6.365899167,0.07484436035,-9.813742218,0.03697311401
6.375826167,0.08158035278,-9.864786072,0.04819976807
6.385753167,0.1281335449,-9.890532532,0.07289840698
6.395680167,0.1880090332,-9.879305878,0.1001417542
6.405607167,0.2501298523,-9.848919067,0.1052311707
6.415534167,0.3218307495,-9.825567627,0.09385482788
6.425460167,0.3763174438,-9.82287323,0.1043330383
6.435387167,0.4179309082,-9.820328522,0.08277786255
6.445314167,0.4375401306,-9.810898132,0.07020401001
6.455241167,0.4568499756,-9.800419922,0.06810836792
6.465168167,0.4766088867,-9.804012451,0.07933502197
6.475095167,0.4819976807,-9.829459534,0.06526428223
6.485022167,0.4572990417,-9.851014709,0.07499404907
6.494948167,0.430355072,-9.86269043,0.08382568359
6.504875167,0.403560791,-9.881102142,0.06062393188
6.514802167,0.3954776001,-9.898765411,0.03936813354
6.524729167,0.3893403625,-9.917177124,0.0426612854
6.534656167,0.4090992737,-9.929002533,0.02514770508
6.544583167,0.4312532043,-9.924511871,0.02305206299
6.554513667,0.4555027771,-9.904004517,0.02215393066
6.564439667,0.4977149963,-9.877359924,0.01916015625
6.574366667,0.5400769043,-9.847871246,0.02335144043
6.584293667,0.5785469055,-9.827812958,0.04251159668
6.594220667,0.5966592407,-9.810299377,0.04939727783
6.604147667,0.5936654663,-9.823322296,0.06765930176
6.614074667,0.5766009521,-9.828262024,0.07379653931
6.624001667,0.5418731689,-9.828561401,0.09639953613
6.633928667,0.5095404053,-9.823621674,0.1053808594
6.643854667,0.4575984192,-9.832303619,0.09804611206
6.653781667,0.4017645264,-9.855954437,0.09849517822
6.663708667,0.3338058472,-9.868827667,0.0802331543
6.673635667,0.2782713318,-9.863289185,0.05957611084
6.683562667,0.2490820312,-9.86613327,0.05733078003
6.693489667,0.2414479065,-9.883347473,0.05777984619
6.703416667,0.2601589966,-9.906698914,0.05044509888
6.713342667,0.2920426941,-9.888885956,0.04565505981
6.723269667,0.3150947571,-9.862241364,0.04655319214
6.733196667,0.3532653809,-9.83335144,0.04385879517
6.743123667,0.3854484558,-9.843230896,0.04909790039
6.753050667,0.4213737488,-9.87436615,0.03951782227
6.762977667,0.4408332825,-9.881102142,0.06466552734
6.772904667,0.4429289246,-9.857002258,0.09729766846
6.782830667,0.4296066284,-9.840237122,0.1276844788
6.792757667,0.4376898193,-9.8299086,0.1375639343
6.802684667,0.4549040222,-9.828112335,0.1564247131
6.812611667,0.4628375244,-9.827663269,0.1715432739
6.822538667,0.4544549561,-9.801916809,0.1401086426
6.832465667,0.425565033,-9.787546692,0.09729766846
6.842392667,0.4156855774,-9.793534241,0.03727249146
6.852318667,0.4085005188,-9.828411713,0.02020797729
6.862245667,0.3849993896,-9.869127045,0.02320175171
6.872172667,0.3653901672,-9.90131012,0.003742218018
6.882099667,0.3604504395,-9.93633728,0.01122665405
6.892026667,0.3608995056,-9.944719849,0.06152206421
6.901953667,0.3664379883,-9.904004517,0.09535171509
6.911880667,0.3954776001,-9.858349457,0.1158590698
6.921806667,0.4438270569,-9.855505371,0.1152603149
6.931733667,0.4869374084,-9.848320312,0.1633103943
6.941660667,0.5251080322,-9.826016693,0.1606159973
6.951587667,0.5228627014,-9.821825409,0.1492396545
6.961514667,0.5276527405,-9.839338989,0.1269360352
6.971441667,0.5471122742,-9.851613464,0.08262817383
6.981368667,0.5643264771,-9.863588562,0.04819976807
6.991294667,0.5766009521,-9.866732025,0.01526824951
7.001221667,0.5769003296,-9.864636383,-0.008981323242
7.011148667,0.5658233643,-9.827962646,-0.01392105103
7.021075667,0.5542973328,-9.802665253,0.0001496887207
7.031002667,0.5529501343,-9.791737976,0.02020797729
7.040929667,0.5403762817,-9.800719299,0.04415817261
7.050856667,0.5269042969,-9.782756653,0.05748046875
7.060782667,0.4915777588,-9.775571594,0.0809815979
7.070709667,0.4544549561,-9.775721283,0.08128097534
7.080636667,0.4215234375,-9.769733734,0.07723937988
7.090563667,0.3742218018,-9.780062256,0.04011657715
7.100490667,0.3478765869,-9.841434631,0.02005828857
7.110417667,0.3430865479,-9.928703156,0.02140548706
7.120344667,0.3866459656,-10.04366409,0.05029541016
7.130270667,0.4453239441,-10.0887204,0.1398092651
7.140197667,0.4249662781,-9.96911911,0.2017803955
7.150124667,0.4082011414,-9.812993774,0.1585203552
7.160051667,0.4284091187,-9.750423889,0.07843688965
7.169978667,0.4632865906,-9.774673462,0.05673202515
7.179905667,0.5051994324,-9.846823425,0.06571334839
7.189832667,0.5144801331,-9.895771637,0.08666976929
7.199758667,0.5086422729,-9.90475296,0.07574249268
7.209685667,0.5409750366,-9.913285217,0.08652008057
7.219612667,0.5665718079,-9.885443115,0.1127156067
7.229539667,0.5755531311,-9.827812958,0.1055305481
7.239466667,0.5786965942,-9.792037354,0.05733078003
7.249393667,0.5658233643,-9.787546692,0.03203338623
7.259319667,0.5516029358,-9.80416214,0.03248245239
7.269246667,0.5168751526,-9.856253815,0.0217048645
7.279173667,0.4869374084,-9.882000275,0.0217048645
7.289100667,0.4426295471,-9.883497162,0.02754272461
7.299027667,0.4116439819,-9.865235138,0.05373825073
7.308954667,0.4011657715,-9.836345215,0.0672102356
7.318881667,0.4188290405,-9.842632141,0.05538482666
7.328807667,0.4519102478,-9.854008484,0.0288899231
7.338734667,0.4857398987,-9.852511597,0.03113525391
7.348661667,0.5034031677,-9.837692413,0.04595443726
7.358588667,0.4981640625,-9.830657043,0.05688171387
7.368515667,0.4796026611,-9.827064514,0.07604187012
7.378442667,0.456101532,-9.841734009,0.09984237671
7.388369667,0.4378395081,-9.858050079,0.1101708984
7.398295667,0.4216731262,-9.871671753,0.1080752563
7.408222667,0.3956272888,-9.876012726,0.08876541138
7.418149667,0.4026626587,-9.868977356,0.06331832886
7.428076667,0.4155358887,-9.873318329,0.04939727783
7.438003667,0.4324507141,-9.867181091,0.02933898926
7.447930667,0.4333488464,-9.838291168,0.01721420288
7.457857667,0.4318519592,-9.824519806,0.01481918335
7.467783667,0.4261637878,-9.828262024,0.02664459229
7.477710667,0.4038601685,-9.83110611,0.04011657715
7.487637667,0.4046086121,-9.844428406,0.04565505981
7.497564667,0.4026626587,-9.865833893,0.05628295898
7.507491667,0.4141886902,-9.865534515,0.06047424316
7.517418667,0.4204756165,-9.863738251,0.06541397095
7.527345667,0.4403842163,-9.843530273,0.06496490479
7.537271667,0.4436773682,-9.839338989,0.06421646118
7.547198667,0.4623884583,-9.842931519,0.07334747314
7.557121917,0.4653822327,-9.858648834,0.08143066406
7.567048917,0.4604425049,-9.858499146,0.08113128662
7.576975917,0.457149353,-9.843230896,0.08247848511
7.586902917,0.4599934387,-9.840536499,0.08637039185
7.596828917,0.4632865906,-9.84622467,0.09190887451
7.606755917,0.4623884583,-9.855056305,0.09729766846
7.616682917,0.4471202087,-9.863887939,0.1049317932
7.626609917,0.4532574463,-9.873318329,0.09250762939
7.636536917,0.4550537109,-9.87316864,0.07649093628
7.646463917,0.456101532,-9.88843689,0.06212081909
7.656390917,0.435743866,-9.863588562,0.06182144165
7.666316917,0.4153862,-9.8299086,0.04790039063
7.676243917,0.3953279114,-9.835147705,0.03083587646
7.686170917,0.3951782227,-9.835596771,0.02829116821
7.696097917,0.3945794678,-9.835896149,0.03727249146
7.706024917,0.390687561,-9.82047821,0.04041595459
7.715951917,0.4020639038,-9.791438599,0.05688171387
7.725878917,0.409997406,-9.718839569,0.06152206421
7.735804917,0.4180805969,-9.625583496,0.05523513794
7.745731917,0.4155358887,-9.514963531,0.04894821167
7.755658917,0.4135899353,-9.379644928,0.04490661621
7.765585917,0.4203259277,-9.284293213,0.03278182983
7.775512917,0.4346960449,-9.240584106,0.02050735474
7.785439917,0.468974762,-9.284442902,0.01287322998
7.795365917,0.5197192383,-9.388626251,0.04460723877
