Time (s),Acceleration x (m/s^2),Acceleration y (m/s^2),Acceleration z (m/s^2)
4.000379758,1.161187768,-9.648932457,-0.6009446383
4.002379758,1.165976286,-9.644144058,-0.6033388376
4.004379758,1.170764685,-9.639355659,-0.605733037
4.006379724,1.175553083,-9.636960983,-0.6105214357
4.00837969,1.180341482,-9.636960983,-0.6153098345
4.01037939,1.185129881,-9.636960983,-0.6200982332
4.012379356,1.18991828,-9.639355659,-0.624886632
4.014379322,1.194706678,-9.636960983,-0.6272808313
4.016379288,1.199495077,-9.634567261,-0.6296750307
4.018379254,1.204283476,-9.634567261,-0.6320692301
4.020379254,1.209071875,-9.634567261,-0.6296750307
4.022379254,1.211466074,-9.636960983,-0.6272808313
4.024379287,1.206677675,-9.644144058,-0.6272808313
4.02637932,1.199495077,-9.648932457,-0.6272808313
4.028378953,1.194706678,-9.653720856,-0.624886632
4.030378986,1.192312479,-9.656114578,-0.6224924326
4.032378752,1.18991828,-9.658509254,-0.6200982332
4.034379252,1.182735682,-9.658509254,-0.6177040339
4.036379252,1.177947283,-9.658509254,-0.6177040339
4.038378552,1.173158884,-9.658509254,-0.6153098345
4.040378518,1.165976286,-9.656114578,-0.6129156351
4.042378084,1.158793569,-9.656114578,-0.6153098345
4.04437715,1.15400517,-9.658509254,-0.6177040339
4.046376816,1.15161097,-9.660902977,-0.6153098345
4.048376782,1.149216771,-9.663297653,-0.6153098345
4.050376748,1.149216771,-9.663297653,-0.6129156351
4.052376748,1.146822572,-9.668086052,-0.6129156351
4.054376781,1.146822572,-9.670479774,-0.6153098345
4.056376814,1.149216771,-9.677662849,-0.6129156351
4.058376847,1.146822572,-9.682451248,-0.6105214357
4.06037688,1.144428372,-9.684844971,-0.6105214357
4.062376913,1.144428372,-9.687239647,-0.6105214357
4.064376946,1.144428372,-9.689633369,-0.6129156351
4.066376979,1.146822572,-9.696816444,-0.6177040339
4.068377012,1.149216771,-9.703998566,-0.6224924326
4.070377278,1.15161097,-9.711181641,-0.6272808313
4.072377278,1.156399369,-9.718363762,-0.6320692301
4.074377278,1.158793569,-9.727940559,-0.6320692301
4.076377278,1.163581967,-9.735123634,-0.6392518282
4.078377278,1.168370485,-9.739912033,-0.6488286853
4.080376878,1.175553083,-9.744700432,-0.6560112834
4.082376878,1.182735682,-9.751882553,-0.6631938815
4.084376844,1.18991828,-9.759065628,-0.6679822803
4.08637681,1.197100878,-9.766247749,-0.672770679
4.088377176,1.204283476,-9.771036148,-0.6775590777
4.090377142,1.211466074,-9.773430824,-0.6823474765
4.092377108,1.218648672,-9.775824547,-0.6871358752
4.094377074,1.223437071,-9.780612946,-0.6895300746
4.09637704,1.22583127,-9.785401344,-0.6895300746
4.098377706,1.22822547,-9.787796021,-0.6895300746
4.100377706,1.230619669,-9.792584419,-0.6871358752
4.102378139,1.233013868,-9.794978142,-0.6871358752
4.104379072,1.230619669,-9.797372818,-0.6895300746
4.106379472,1.233013868,-9.799766541,-0.6895300746
4.108380638,1.233013868,-9.802161217,-0.6871358752
4.110380671,1.233013868,-9.802161217,-0.6847416759
4.112380704,1.233013868,-9.804554939,-0.6775590777
4.114380704,1.235408068,-9.806949615,-0.6703764796
4.116380704,1.235408068,-9.806949615,-0.6631938815
4.11838067,1.233013868,-9.804554939,-0.6560112834
4.12037977,1.22822547,-9.804554939,-0.6488286853
4.122379736,1.22822547,-9.806949615,-0.6440402865
4.124379702,1.22583127,-9.806949615,-0.6392518282
4.126379668,1.223437071,-9.804554939,-0.6344634295
4.128379634,1.223437071,-9.804554939,-0.6296750307
4.130379634,1.22583127,-9.804554939,-0.624886632
4.132379634,1.22822547,-9.804554939,-0.6200982332
4.134379634,1.230619669,-9.804554939,-0.6153098345
4.136379634,1.233013868,-9.802161217,-0.6105214357
4.138379634,1.233013868,-9.797372818,-0.605733037
4.140380034,1.230619669,-9.792584419,-0.6009446383
4.142380034,1.230619669,-9.792584419,-0.5961562395
4.144380034,1.22822547,-9.792584419,-0.5937620401
4.146380034,1.22822547,-9.792584419,-0.586579442
4.148380067,1.22583127,-9.790189743,-0.5817909837
4.1503801,1.223437071,-9.787796021,-0.5770025849
4.152380133,1.221042871,-9.785401344,-0.5746083856
4.154380166,1.216254473,-9.778219223,-0.5722141862
4.156380199,1.216254473,-9.773430824,-0.5674257874
4.158380232,1.216254473,-9.768642426,-0.5626373887
4.160380265,1.213860273,-9.763854027,-0.55784899
4.162380265,1.216254473,-9.756670952,-0.5506663918
4.164380231,1.218648672,-9.749488831,-0.5434837937
4.166380197,1.221042871,-9.742305756,-0.538695395
4.16837903,1.221042871,-9.735123634,-0.5339069963
4.170378996,1.223437071,-9.725546837,-0.5291185975
4.172378962,1.22583127,-9.715970039,-0.5243301988
4.174378928,1.22822547,-9.706393242,-0.5195417404
4.176378894,1.22822547,-9.696816444,-0.5123591423
4.17838026,1.230619669,-9.692028046,-0.5075707436
4.18038116,1.230619669,-9.687239647,-0.4979939461
4.182381193,1.230619669,-9.680056572,-0.490811348
4.184381226,1.230619669,-9.672874451,-0.4860229492
4.186381259,1.233013868,-9.665691376,-0.4812345505
4.188381292,1.235408068,-9.658509254,-0.4788403511
4.190381325,1.237802267,-9.658509254,-0.4764461517
4.192381358,1.235408068,-9.656114578,-0.4740519226
4.194381391,1.233013868,-9.656114578,-0.4716577232
4.196381391,1.233013868,-9.65132618,-0.4692635238
4.198381391,1.233013868,-9.648932457,-0.4692635238
4.200381391,1.230619669,-9.646537781,-0.4692635238
4.202380991,1.233013868,-9.644144058,-0.4668693244
4.204380991,1.230619669,-9.644144058,-0.4668693244
4.206380991,1.223437071,-9.644144058,-0.4620809257
4.208380557,1.218648672,-9.641749382,-0.4596867263
4.210380523,1.216254473,-9.639355659,-0.457292527
4.212380489,1.213860273,-9.634567261,-0.457292527
4.214380455,1.216254473,-9.632172585,-0.4620809257
4.216380421,1.213860273,-9.627384186,-0.4668693244
4.218380387,1.211466074,-9.622595787,-0.4716577232
4.220380353,1.204283476,-9.617807388,-0.4764461517
4.222380319,1.197100878,-9.615413666,-0.4836287498
4.224380319,1.192312479,-9.61301899,-0.490811348
4.226380352,1.192312479,-9.61301899,-0.5003881454
4.228380385,1.192312479,-9.615413666,-0.5123591423
4.230380418,1.192312479,-9.61301899,-0.5243301988
4.232380451,1.192312479,-9.61301899,-0.5363011956
4.234380484,1.18991828,-9.615413666,-0.5482721925
4.236380517,1.192312479,-9.615413666,-0.5626373887
4.238378883,1.197100878,-9.615413666,-0.5746083856
4.240378216,1.197100878,-9.61301899,-0.5841852427
4.242378582,1.199495077,-9.610625267,-0.5937620401
4.244378548,1.201889277,-9.610625267,-0.6009446383
4.246378514,1.204283476,-9.61301899,-0.6129156351
4.24837848,1.206677675,-9.615413666,-0.6224924326
4.250378446,1.206677675,-9.620202065,-0.6296750307
4.252378412,1.201889277,-9.624990463,-0.6368576288
4.254378378,1.199495077,-9.632172585,-0.6416460276
4.256378378,1.194706678,-9.641749382,-0.6464344859
4.258378411,1.192312479,-9.65132618,-0.6512228847
4.260378444,1.18991828,-9.663297653,-0.653617084
4.262378877,1.18752408,-9.677662849,-0.653617084
4.26437891,1.182735682,-9.692028046,-0.6560112834
4.266378943,1.182735682,-9.701604843,-0.6560112834
4.268378976,1.180341482,-9.708786964,-0.6560112834
4.270379009,1.182735682,-9.718363762,-0.653617084
4.272379042,1.182735682,-9.727940559,-0.6512228847
4.274379042,1.177947283,-9.735123634,-0.6488286853
4.276379042,1.175553083,-9.742305756,-0.6440402865
4.278379042,1.173158884,-9.747094154,-0.6368576288
4.280379042,1.170764685,-9.751882553,-0.6272808313
4.282379042,1.168370485,-9.756670952,-0.6200982332
4.284379042,1.165976286,-9.759065628,-0.6129156351
4.286379008,1.163581967,-9.761459351,-0.6009446383
4.288378974,1.158793569,-9.761459351,-0.5841852427
4.29037894,1.15161097,-9.761459351,-0.5698199868
4.292378906,1.139639974,-9.761459351,-0.55784899
4.294378872,1.127668977,-9.761459351,-0.5458779931
4.296378838,1.11569798,-9.761459351,-0.5315127969
4.298378938,1.106121182,-9.761459351,-0.5195417404
4.300379571,1.098938584,-9.763854027,-0.5099649429
4.302379171,1.089361787,-9.766247749,-0.4955997467
4.304378804,1.079784989,-9.768642426,-0.4812345505
4.306378837,1.070208192,-9.771036148,-0.4692635238
4.30837887,1.060631394,-9.773430824,-0.457292527
4.310378903,1.051054597,-9.778219223,-0.4453215301
4.312378936,1.04147768,-9.783007622,-0.4357447028
4.314378969,1.031900883,-9.785401344,-0.4285621047
4.316379002,1.024718285,-9.783007622,-0.4213795066
4.318379002,1.017535686,-9.783007622,-0.4165911078
4.320378968,1.012747288,-9.780612946,-0.4141969085
4.322378934,1.007958889,-9.783007622,-0.4118026793
4.3243789,1.00317049,-9.783007622,-0.4118026793
4.326378866,1.00317049,-9.783007622,-0.4118026793
4.328379932,1.00317049,-9.783007622,-0.4141969085
4.330379898,1.007958889,-9.783007622,-0.4165911078
4.332379864,1.012747288,-9.783007622,-0.423773706
4.334379864,1.015141487,-9.783007622,-0.4309563041
4.336379897,1.022324085,-9.780612946,-0.4405331016
4.33837993,1.031900883,-9.775824547,-0.4525041282
4.340379963,1.036689281,-9.773430824,-0.4644751251
4.342379996,1.043871999,-9.768642426,-0.4788403511
4.344380029,1.055842996,-9.766247749,-0.4932055473
4.346380062,1.067813993,-9.763854027,-0.5099649429
4.348380095,1.079784989,-9.761459351,-0.5243301988
4.350380128,1.089361787,-9.759065628,-0.5363011956
4.352381328,1.096544385,-9.754277229,-0.5482721925
4.354381328,1.106121182,-9.747094154,-0.5602431893
4.356381328,1.118092179,-9.742305756,-0.5722141862
4.358381494,1.127668977,-9.737517357,-0.5841852427
4.360381494,1.134851575,-9.730335236,-0.5913678408
4.362381494,1.137245774,-9.723152161,-0.5961562395
4.36438186,1.139639974,-9.713575363,-0.6009446383
4.366381826,1.144428372,-9.706393242,-0.605733037
4.368381792,1.149216771,-9.701604843,-0.6081272364
4.370381758,1.15400517,-9.694421768,-0.6105214357
4.372381724,1.156399369,-9.692028046,-0.6129156351
4.37438169,1.15400517,-9.687239647,-0.6129156351
4.376381656,1.15161097,-9.680056572,-0.6129156351
4.378381622,1.149216771,-9.672874451,-0.6129156351
4.380381622,1.146822572,-9.665691376,-0.6105214357
4.382381655,1.146822572,-9.656114578,-0.605733037
4.384381688,1.149216771,-9.646537781,-0.6009446383
4.386381721,1.15400517,-9.639355659,-0.5985504389
4.388381054,1.158793569,-9.639355659,-0.5985504389
4.390381087,1.161187768,-9.639355659,-0.5961562395
4.39238112,1.165976286,-9.639355659,-0.5913678408
4.394381153,1.170764685,-9.639355659,-0.5889736414
4.396381153,1.175553083,-9.634567261,-0.586579442
4.398381119,1.180341482,-9.629778862,-0.5817909837
4.400381085,1.18752408,-9.624990463,-0.5793967843
4.402381051,1.199495077,-9.620202065,-0.5793967843
4.404381017,1.209071875,-9.620202065,-0.5746083856
4.406380983,1.218648672,-9.615413666,-0.5698199868
4.408380949,1.22822547,-9.608230591,-0.5674257874
4.410380915,1.233013868,-9.60104847,-0.5602431893
4.412379315,1.237802267,-9.593865395,-0.5530605912
4.414379348,1.242590666,-9.586683273,-0.5458779931
4.416379381,1.242590666,-9.577106476,-0.538695395
4.418379414,1.244984865,-9.572318077,-0.5315127969
4.420379447,1.247379065,-9.572318077,-0.5243301988
4.42237948,1.249773264,-9.569923401,-0.5147533417
4.424379513,1.254561663,-9.565135002,-0.5075707436
4.426379546,1.256955862,-9.560346603,-0.5027823448
4.428379579,1.259350061,-9.555558205,-0.4979939461
4.430379579,1.259350061,-9.553164482,-0.4932055473
4.432379579,1.252167463,-9.553164482,-0.4884171486
4.434379579,1.244984865,-9.555558205,-0.4860229492
4.436379779,1.240196466,-9.560346603,-0.4812345505
4.438379112,1.233013868,-9.565135002,-0.4764461517
4.440379112,1.223437071,-9.572318077,-0.4716577232
4.442379078,1.213860273,-9.577106476,-0.4668693244
4.444379044,1.201889277,-9.586683273,-0.4620809257
4.446378344,1.192312479,-9.593865395,-0.4596867263
4.44837831,1.182735682,-9.60104847,-0.457292527
4.450379376,1.168370485,-9.608230591,-0.4548983276
4.452379342,1.158793569,-9.610625267,-0.4525041282
4.454379308,1.15161097,-9.617807388,-0.4548983276
4.456379274,1.139639974,-9.627384186,-0.4596867263
4.458379274,1.127668977,-9.639355659,-0.4644751251
4.460379307,1.118092179,-9.648932457,-0.4716577232
4.46237934,1.108515382,-9.656114578,-0.4788403511
4.464379373,1.101332784,-9.663297653,-0.4812345505
4.466379406,1.094150186,-9.668086052,-0.4860229492
4.468379439,1.089361787,-9.675268173,-0.490811348
4.470379472,1.082179189,-9.684844971,-0.4955997467
4.472379905,1.074996591,-9.694421768,-0.5003881454
4.474379905,1.072602391,-9.701604843,-0.5051765442
4.476379871,1.067813993,-9.708786964,-0.5123591423
4.478379837,1.060631394,-9.713575363,-0.5195417404
4.480379803,1.055842996,-9.718363762,-0.5291185975
4.482379769,1.053448796,-9.720758438,-0.5363011956
4.484379735,1.051054597,-9.723152161,-0.5410895944
4.486379701,1.046266198,-9.730335236,-0.5458779931
4.488379667,1.043871999,-9.737517357,-0.5482721925
4.490379667,1.04147768,-9.744700432,-0.5506663918
4.4923797,1.043871999,-9.749488831,-0.5530605912
4.494379733,1.046266198,-9.751882553,-0.5554547906
4.496380233,1.046266198,-9.754277229,-0.5554547906
4.498380933,1.046266198,-9.759065628,-0.5554547906
4.500380966,1.048660398,-9.768642426,-0.5554547906
4.502380999,1.051054597,-9.775824547,-0.55784899
4.504381032,1.051054597,-9.780612946,-0.55784899
4.506381732,1.053448796,-9.787796021,-0.55784899
4.508381732,1.053448796,-9.792584419,-0.55784899
4.510380632,1.053448796,-9.797372818,-0.55784899
4.512380632,1.053448796,-9.804554939,-0.55784899
4.514380632,1.058237195,-9.809343338,-0.5554547906
4.516380632,1.063025594,-9.811738014,-0.5506663918
4.518380632,1.067813993,-9.814131737,-0.5482721925
4.520380598,1.070208192,-9.818920135,-0.5458779931
4.522380564,1.07739079,-9.818920135,-0.5458779931
4.52438053,1.082179189,-9.818920135,-0.5458779931
4.526380496,1.089361787,-9.816526413,-0.5458779931
4.528380462,1.091755986,-9.814131737,-0.5458779931
4.530380428,1.094150186,-9.811738014,-0.5458779931
4.532380394,1.094150186,-9.806949615,-0.5434837937
4.53438036,1.094150186,-9.804554939,-0.5410895944
4.53638036,1.098938584,-9.802161217,-0.5410895944
4.538379993,1.101332784,-9.799766541,-0.5410895944
4.540380026,1.101332784,-9.797372818,-0.5410895944
4.542380059,1.101332784,-9.797372818,-0.538695395
4.544380092,1.101332784,-9.799766541,-0.5363011956
4.546380125,1.101332784,-9.802161217,-0.5363011956
4.548380158,1.101332784,-9.802161217,-0.5363011956
4.550380191,1.101332784,-9.804554939,-0.5363011956
4.552380191,1.103726983,-9.804554939,-0.5363011956
4.554380157,1.103726983,-9.804554939,-0.5339069963
4.55637909,1.106121182,-9.799766541,-0.5315127969
4.558379056,1.108515382,-9.794978142,-0.5315127969
4.560379022,1.11569798,-9.787796021,-0.5315127969
4.562378988,1.122880578,-9.780612946,-0.5315127969
4.564378954,1.130063176,-9.773430824,-0.5339069963
4.56637892,1.137245774,-9.768642426,-0.5339069963
4.568379386,1.146822572,-9.763854027,-0.5315127969
4.570379419,1.156399369,-9.759065628,-0.5291185975
4.572379452,1.168370485,-9.751882553,-0.5291185975
4.574379485,1.177947283,-9.744700432,-0.5291185975
4.576379518,1.18752408,-9.739912033,-0.5267243981
4.578379551,1.199495077,-9.735123634,-0.5219359994
4.580379584,1.209071875,-9.727940559,-0.5195417404
4.582379617,1.216254473,-9.720758438,-0.517147541
4.58437965,1.223437071,-9.713575363,-0.517147541
4.58637965,1.230619669,-9.703998566,-0.517147541
4.58837965,1.240196466,-9.696816444,-0.517147541
4.59037965,1.247379065,-9.689633369,-0.517147541
4.59237965,1.252167463,-9.680056572,-0.517147541
4.59437965,1.256955862,-9.670479774,-0.517147541
4.59637965,1.261744261,-9.663297653,-0.5147533417
4.598379616,1.26653266,-9.656114578,-0.5123591423
4.600379582,1.271321058,-9.65132618,-0.5099649429
4.602379548,1.273715258,-9.644144058,-0.5099649429
4.604379381,1.276109457,-9.634567261,-0.5123591423
4.606379347,1.280897856,-9.629778862,-0.5147533417
4.608379313,1.280897856,-9.627384186,-0.5147533417
4.610379279,1.278503656,-9.627384186,-0.5147533417
4.612379245,1.278503656,-9.624990463,-0.5123591423
4.614379245,1.280897856,-9.622595787,-0.5123591423
4.616379611,1.280897856,-9.620202065,-0.5147533417
4.618379644,1.278503656,-9.617807388,-0.517147541
4.620379677,1.278503656,-9.615413666,-0.5195417404
4.62237971,1.276109457,-9.617807388,-0.5243301988
4.624379743,1.273715258,-9.620202065,-0.5291185975
4.626379776,1.273715258,-9.620202065,-0.5410895944
4.628378976,1.273715258,-9.622595787,-0.5506663918
4.630378976,1.276109457,-9.627384186,-0.55784899
4.632378942,1.278503656,-9.632172585,-0.5650315881
4.634378908,1.278503656,-9.636960983,-0.5722141862
4.636378874,1.278503656,-9.644144058,-0.5841852427
4.638378174,1.280897856,-9.65132618,-0.5937620401
4.64037814,1.280897856,-9.656114578,-0.6009446383
4.642378106,1.283292055,-9.663297653,-0.605733037
4.644378072,1.280897856,-9.672874451,-0.6105214357
4.646377405,1.278503656,-9.684844971,-0.6153098345
4.648377805,1.276109457,-9.694421768,-0.6224924326
4.650377838,1.276109457,-9.699210167,-0.6296750307
4.652377871,1.276109457,-9.703998566,-0.6368576288
4.654377904,1.276109457,-9.713575363,-0.6416460276
4.656377937,1.268926859,-9.720758438,-0.6440402865
4.65837837,1.26413846,-9.725546837,-0.6464344859
4.660378036,1.254561663,-9.725546837,-0.6488286853
4.662378069,1.244984865,-9.725546837,-0.6488286853
4.664378202,1.237802267,-9.723152161,-0.6488286853
4.666378202,1.230619669,-9.723152161,-0.6464344859
4.668378202,1.22583127,-9.725546837,-0.6440402865
4.670378202,1.218648672,-9.723152161,-0.6392518282
4.672378202,1.209071875,-9.715970039,-0.6368576288
4.674378202,1.201889277,-9.711181641,-0.6320692301
4.676378202,1.18752408,-9.708786964,-0.6224924326
4.678378168,1.175553083,-9.706393242,-0.6129156351
4.680378134,1.165976286,-9.701604843,-0.605733037
4.6823781,1.15400517,-9.696816444,-0.6009446383
4.684378066,1.139639974,-9.692028046,-0.5937620401
4.686378032,1.125274777,-9.687239647,-0.5841852427
4.688378365,1.113303781,-9.682451248,-0.5770025849
4.690378331,1.101332784,-9.677662849,-0.5722141862
4.692378331,1.089361787,-9.672874451,-0.5650315881
4.694378331,1.082179189,-9.670479774,-0.55784899
4.696378364,1.074996591,-9.668086052,-0.5530605912
4.698379064,1.067813993,-9.668086052,-0.5482721925
4.700379097,1.058237195,-9.672874451,-0.5410895944
4.70237913,1.051054597,-9.675268173,-0.5363011956
4.70437913,1.043871999,-9.682451248,-0.5315127969
4.70637983,1.034295082,-9.684844971,-0.5291185975
4.708379463,1.027112484,-9.687239647,-0.5267243981
4.710379429,1.022324085,-9.696816444,-0.5243301988
4.712379395,1.015141487,-9.701604843,-0.5195417404
4.714379361,1.010353088,-9.706393242,-0.517147541
4.716379327,1.00556469,-9.713575363,-0.5147533417
4.718379193,1.000776291,-9.720758438,-0.5123591423
4.720379526,0.9935936928,-9.730335236,-0.5147533417
4.722379492,0.9911994934,-9.737517357,-0.517147541
4.724379492,0.9911994934,-9.742305756,-0.517147541
4.726379525,0.9911994934,-9.749488831,-0.517147541
4.728379558,0.9935936928,-9.756670952,-0.5195417404
4.730379591,0.9959878922,-9.763854027,-0.5195417404
4.732379624,0.9983820915,-9.773430824,-0.5219359994
4.734379657,1.000776291,-9.780612946,-0.5243301988
4.73637969,1.007958889,-9.787796021,-0.5267243981
4.738379723,1.015141487,-9.792584419,-0.5291185975
4.740379756,1.022324085,-9.799766541,-0.5315127969
4.742379756,1.029506683,-9.804554939,-0.5339069963
4.744379456,1.036689281,-9.806949615,-0.538695395
4.746379456,1.043871999,-9.814131737,-0.5410895944
4.748379456,1.048660398,-9.818920135,-0.5434837937
4.750379456,1.055842996,-9.821314812,-0.5482721925
4.752379456,1.058237195,-9.823708534,-0.5506663918
4.754379456,1.063025594,-9.82610321,-0.5506663918
4.756379422,1.067813993,-9.828496933,-0.5530605912
4.758379388,1.072602391,-9.830891609,-0.5554547906
4.760379354,1.07739079,-9.828496933,-0.5554547906
4.76237932,1.089361787,-9.823708534,-0.5530605912
4.76437932,1.098938584,-9.818920135,-0.5530605912
4.766379286,1.103726983,-9.809343338,-0.5530605912
4.768379252,1.108515382,-9.799766541,-0.5506663918
4.770379252,1.113303781,-9.790189743,-0.5482721925
4.772379252,1.120486379,-9.775824547,-0.5434837937
4.774379285,1.125274777,-9.763854027,-0.538695395
4.776379318,1.132457376,-9.754277229,-0.5363011956
4.778379451,1.137245774,-9.742305756,-0.5339069963
4.780379484,1.142034173,-9.730335236,-0.5291185975
4.782379517,1.15161097,-9.718363762,-0.5243301988
4.78437955,1.158793569,-9.703998566,-0.517147541
