Time (s),Acceleration x (m/s^2),Acceleration y (m/s^2),Acceleration z (m/s^2)
9.001593727,-0.11416372808638231,-0.49885407239914337,-1.1983240061019467
9.003593693,-0.22315178645659864,-0.35570329720086963,-1.3909747878011076
9.005594059,-0.33211380360430887,-0.21353265831360901,-1.582362118637717
9.007594059,-0.44078264253127325,-0.07298937933681883,-1.7716508882622803
9.009594092,-0.548889398637633,0.06528577831720186,-1.958020087181933
9.011594125,-0.6561641492730897,0.20066318450200163,-2.1406689592625243
9.013594158,-0.7623366996809018,0.33252898594416924,-2.3188230070630365
9.015594191,-0.8671373232929215,0.4602896912053066,-2.4917397969727317
9.017594224,-0.9702974949933368,0.5833766581500526,-2.6587145122071507
9.019594257,-1.0715506165982336,0.7012504477755265,-2.819085203224733
9.02159429,-1.1706327343049379,0.8134050093717058,-2.972237687087493
9.02359429,-1.2672832482075713,0.9193716634925119,-3.117610049758874
9.025594256,-1.3612456141500042,1.018722851085094,-3.2546967083783356
9.027594222,-1.452268038197787,1.1110756193168112,-3.3830519942546764
9.029594188,-1.5401041638600694,1.1960948171315946,-3.5022932217435088
9.031594154,-1.624513751898532,1.2734959763256093,-3.6121032133331092
9.03359412,-1.705263352153533,1.3430478569029014,-3.712232257105414
9.035593686,-1.782126966322222,1.4045746385946019,-3.8024994791627416
9.037593652,-1.8548867000503872,1.457957743647997,-3.882793620489919
9.039593652,-1.923333402060413,1.5031372792717788,-3.9530732149342036
9.041592785,-1.9872672873516057,1.5401130914176384,-4.013366172427578
9.043592385,-2.046498540803278,1.5689454248324128,-4.063768779152588
9.045591551,-2.100847896830841,1.5897551874663782,-4.104444133944426
9.047590717,-2.1501471901904927,1.6027238203026128,-4.135620047587292
9.04958985,-2.1942398727726964,1.6080927764023594,-4.157586438321375
9.051589016,-2.232981491441269,1.6061626153748274,-4.1706922622160825
9.053588149,-2.2662401226879596,1.5972917215618467,-4.175342020741377
9.055587282,-2.2938967609153282,1.5818946560297835,-4.1719918900565895
9.057586415,-2.315845658309081,1.5604401540608974,-4.161145517702031
9.059585515,-2.3319946153732194,1.5334487812914679,-4.143349532911918
9.061584615,-2.3422652222306914,1.5014902629832285,-4.119188816860045
9.063583948,-2.346593051731459,1.4651805021509248,-4.089281578875164
9.065583048,-2.3449278062579286,1.425178303407369,-4.054274284034444
9.067582148,-2.3372334208745547,1.3821818204245857,-4.01483647651585
9.069581214,-2.3234881261398157,1.336924745830875,-3.971655541568683
9.07158028,-2.303684474502044,1.2901722631473815,-3.9254314468615767
9.07357958,-2.277829334761153,1.2427167809956008,-3.876871501289447
9.075578646,-2.245943859613514,1.1953734702723222,-3.826685166164526
9.077577712,-2.208063431802641,1.148975625298059,-3.7755789502380694
9.079576778,-2.164237594847988,1.1043698701182914,-3.72425141636771
9.081575844,-2.1145299746801904,1.0624112311992429,-3.673388324018811
9.08357491,-2.0590181987381464,1.0239580977352079,-3.6236579282996
9.08557401,-1.9977938191636477,0.9898670906900454,-3.5757064529772267
9.087573143,-1.9309622466639145,0.9609878615449433,-3.5301537519701593
9.089572276,-1.8586427014075424,0.9381578415340548,-3.4875891712047014
9.091572309,-1.7809681869751737,0.9221969619409398,-3.448567620478505
9.093572342,-1.6980854928925462,0.9139023658301635,-3.4136058630780424
9.095572775,-1.6101552305949713,0.914043131439101,-3.383179029312061
9.097572808,-1.5173519067369452,0.9233550274119627,-3.357717358797738
9.099572841,-1.4198640364882318,0.9425353201891585,-3.337603175213141
9.101573741,-1.317894297815939,0.9722376542197285,-3.323168096274563
9.103574141,-1.2116597257926676,1.0130670262424284,-3.314690480941435
9.105574974,-1.1013919438217787,1.0655748756291608,-3.3123931153970267
9.107575807,-0.9873374264947583,1.130254313624598,-3.3164411393244
9.109576673,-0.8697577867353214,1.2075355151763474,-3.326940214469408
9.111577506,-0.7489300780274439,1.2977812978779952,-3.3439349384422603
9.113578706,-0.6251471009080111,1.4012829133047413,-3.3674075080724344
9.115579572,-0.4987177015499513,1.5182560766795483,-3.3972766382901325
9.117579538,-0.369967049189859,1.6488372613434372,-3.4333967443486073
9.119580471,-0.23923687837863916,1.7930802848951035,-3.4755573971017073
9.121581404,-0.10688568154541907,1.9509532140976844,-3.5234830628725584
9.123582104,0.02671116286792411,2.1223356157259325,-3.5768331410584384
9.125583037,0.16116134146177666,2.3070161804549767,-3.6352023139069116
9.12758397,0.29605565072240736,2.5046907466689645,-3.6981212237964374
9.129584003,0.4309681499497666,2.7149607506789466,-3.765057493803273
9.131584036,0.5654564361587318,2.937332129281863,-3.835417107274649
9.133583836,0.6990620543636265,3.1712146998783024,-3.908546161506155
9.135583836,0.831311056101487,3.4159220424830625,-3.9837330094340246
9.137583836,0.9617147183866986,3.670671906848406,-4.06021080154743
9.139583836,1.0897704344767185,3.9345871664998957,-4.137160438067029
9.141584736,1.2149627868319353,4.206697339712706,-4.213713938874098
9.143585636,1.3367648114411455,4.485940695321549,-4.288958235744897
9.145586536,1.4546394612281126,4.771166958771834,-4.3619393881811295
9.147587402,1.5680412745407293,5.061140631007664,-4.431667220565951
9.149587868,1.6764182527625657,5.3545449296729055,-4.497120374552952
9.151587834,1.7792139488984258,5.649986358678635,-4.55725176655157
9.1535878,1.8758697665895931,5.94599990846366,-4.610994435949924
9.155587766,1.9658274664294462,6.241054885256772,-4.657267765363025
9.157587732,2.0485318737066525,6.533561363361427,-4.694984049760747
9.159587698,2.1234337788464868,6.821877249941454,-4.723055386864517
9.161587664,2.1899930189024577,7.104315946993091,-4.740400856749756
9.163587664,2.24768172552012,7.379154590146331,-4.745953954194471
9.165587697,2.295987721898998,7.644642838666857,-4.738670233011249
9.16758773,2.3344180484623482,7.899012185573543,-4.717535117426096
9.169586896,2.3625025942582165,8.140485751218876,-4.681571831556438
9.171586062,2.379797808618635,8.367288518109348,-4.629849394224744
9.173584895,2.3858904653561734,8.577657959292841,-4.561490622762359
9.175584428,2.38040144981137,8.769855007376668,-4.475680086167999
9.177585361,2.362989537375905,8.942175306129284,-4.371671945065627
9.179585594,2.333355130685389,9.092960681584673,-4.248797613439969
9.18158556,2.291243921497624,9.220610764591331,-4.106473175186294
9.183585526,2.236450442358408,9.323594691896016,-3.9442064871530613
9.185585492,2.1688214725180437,9.400462808244479,-3.7616038996265444
9.187585458,2.0882592621990725,9.44985828773821,-3.5583765251324273
9.189586324,1.9947245392262969,9.470528588906395,-3.3343459870267416
9.19158719,1.8882392622156372,9.461336654709603,-3.08944958064639
9.19358719,1.768889084989572,9.421271766041814,-2.82374478183775
9.195587656,1.6368254976616992,9.34945995529297,-2.5374130405244095
9.197588589,1.4922676109318744,9.245173885234422,-2.2307628006192224
9.199589522,1.335503551575585,9.107842097955242,-1.9042316920081388
9.201589555,1.166891438910082,8.937057538859905,-1.558387845507977
9.203589588,0.9868599141760975,8.732585261882207,-1.193930287608418
9.205589621,0.7959081972713685,8.49436922412424,-0.8116883784212431
9.207589654,0.5946056480833004,8.222538081142106,-0.4126202635265304
9.209590087,0.38359081276975426,7.917409898111529,0.002189681736377475
9.21159012,0.1635699387196585,7.579495697139585,0.431534428592062
9.21359012,-0.06468505440991905,7.2095017670533,0.874088895944327
9.21559012,-0.3003391562328326,6.808330669091186,1.3284155711441659
9.21759012,-0.5424974041626891,6.37708088003732,1.7929711355766211
9.21959012,-0.7902085788149216,5.917045023444094,2.266114070219347
9.22159012,-1.0424694513364636,5.429706649654912,2.746113206048667
9.22359012,-1.2982295725803847,4.916735536319417,3.2311571737006144
9.225590086,-1.5563965886021114,4.37998149293893,3.7193646962404032
9.227590052,-1.8158420612379658,3.8214666656246474,4.208795658389297
9.229590885,-2.075407766583488,3.2433763516139935,4.697462875250461
9.231591718,-2.3339124380689906,2.6480483470663705,5.183344473604663
9.233592551,-2.590158914581572,2.0379608661208883,5.664396789353448
9.235593017,-2.8429416477701057,1.4157190839886347,6.138567675855467
9.237592983,-3.0910545163862984,0.784040371774872,6.603810109958902
9.239592716,-3.3332988893717364,0.145738305569901,7.058095975676071
9.241592049,-3.568491873504846,-0.4962944530615391,7.499429899792359
9.243591415,-3.795474675884015,-1.1391042938519225,7.925863009365975
9.245591448,-4.013121006486427,-1.779695686851108,8.335506478285119
9.247590681,-4.220345441676625,-2.4150509657721186,8.726544729125187
9.249590281,-4.416111665999084,-3.0421507158111067,9.09724815775409
9.251590314,-4.5994405069879445,-3.657994605294141,9.44598525158378
9.253591214,-4.769417676156218,-4.259622490951631,9.771233978082828
9.25559168,-4.925201128891256,-4.844135618457247,10.071592328165986
9.25759168,-5.066027956802518,-5.4087177332883885,10.345787909370545
9.259591646,-5.191220728240712,-5.950655912166631,10.59268649619394
9.261591612,-5.3001931962845665,-6.467360922449223,10.811299459218596
9.263591578,-5.392455298492765,-6.956386915923737,11.000790010047869
9.265591544,-5.467617379152181,-7.415450264543869,11.160478214884993
9.26759151,-5.525393572585823,-7.8424473487818345,11.289844745163494
9.26959151,-5.565604295209392,-8.235471114490261,11.388533348571178
9.271591476,-5.588177804286352,-8.592826221449089,11.456352037969802
9.273591476,-5.593150792548537,-8.913042616096263,11.493273009186973
9.275591509,-5.580667999834844,-9.194887372318123,11.499431311619105
9.277591542,-5.550980835462774,-9.43737465764973,11.4751223081667
9.279591575,-5.504445017986658,-9.639773697824836,11.420797973231497
9.281590941,-5.4415172520829636,-9.801614630244593,11.337062089171887
9.283590974,-5.362750975247711,-9.922692156431168,11.224664412404167
9.285591007,-5.268791219446859,-10.00306692471465,11.08449388980311
9.287590373,-5.160368644475796,-10.043064597142193,10.917571013712191
9.289590406,-5.038292810275282,-10.043272578772195,10.725039409329469
9.291590406,-4.903444764636526,-10.004534412900057,10.50815675134053
9.293590406,-4.7567690304978045,-9.927941872008502,10.26828510757472
9.295590406,-4.599265083300325,-9.81482480093759,10.00688080649382
9.297590406,-4.43197841355025,-9.666738795523953,9.725483922827223
9.299590406,-4.255991272788469,-9.485450826364731,9.425707471950231
9.301591072,-4.072413202648485,-9.272922942995999,9.109226398961223
9.303591705,-3.8823714467094845,-9.031294218192109,8.777766443145625
9.305591671,-3.6870013435672724,-8.762861114833498,8.43309295288051
9.307592437,-3.48743679706577,-8.470056478386566,8.076999720239014
9.309592837,-3.2848009160525646,-8.155427376022953,7.711297898769104
9.311592803,-3.080196911449403,-7.821612018328004,7.337805062301235
9.313592769,-2.8746993329924426,-7.471316010985731,6.958334457315286
9.315592735,-2.6693457218489276,-7.107288191462048,6.574684496456225
9.317592701,-2.4651287486268085,-6.73229630946294,6.1886285362700715
9.319592701,-2.2629888992413467,-6.349102809998399,5.801904978154593
9.321592734,-2.0638077638549572,-5.960440974515855,5.416207727905123
9.323592767,-1.8684019767991045,-5.568991669022972,5.033177046115204
9.3255928,-1.677517848118779,-5.17736093860065,4.654390819083148
9.327592833,-1.4918267202148543,-4.788058675422528,4.28135627776665
9.329592833,-1.311921076033807,-4.4034785725945165,3.9155021906765115
9.331592866,-1.1383114183890366,-4.025879559102957,3.558171555359926
9.333592899,-0.9714239333085516,-3.6573688922352456,3.210614812256778
9.335592899,-0.8115989438049772,-3.2998870632907864,2.8739836041805686
9.337592865,-0.6590901541801686,-2.9551946504451707,2.549325104423716
9.339592831,-0.5140646789496437,-2.6248612294880806,2.237576936446929
9.341593464,-0.3766038447515026,-2.3102564291206424,1.9395627082139335
9.34359343,-0.24670474822583266,-2.01254319290191,1.6559881844048128
9.345593063,-0.1242825478142138,-1.7326732850732705,1.3874381199082748
9.347593696,-0.009173462697182921,-1.4713850526161267,1.1343737780726706
9.349593662,0.09886155239853227,-1.2292034312578388,0.8971311570954891
9.351593662,0.2001324920906611,-1.0064421589931887,0.6759199475520915
9.353593695,0.29501538466137706,-0.8032081372947224,0.47082324330504677
9.355593728,0.38394681961288873,-0.6194078577928402,0.2817980267920597
9.357593761,0.4674179662947394,-0.45475579104506725,0.10867644786440206
9.359593794,0.5459681354525248,-0.3087846142893096,-0.04883208712626796
9.361593827,0.6201779395409891,-0.1808571369643946,-0.19113800241993611
9.36359386,0.6906621115799124,-0.07017976643497399,-0.31876780627828416
9.365593893,0.7580620461491473,0.02418265809101997,-0.4323595051994607
9.367593926,0.8230381297412183,0.10329084790990112,-0.5326571781636266
9.369593926,0.8862619310234428,0.1683140582519324,-0.6205047154299033
9.371593926,0.9484083245117693,0.220512295804673,-0.696838732150995
9.373593926,1.0101476236299514,0.2612179492856792,-0.7626806733567429
9.375593826,1.0721378010052114,0.29181705564263016,-0.8191281338466754
9.377593826,1.1350168749783442,0.31373041572506843,-0.8673454244759538
9.379593826,1.199395541495426,0.3283947721962513,-0.908553425475121
9.381593792,1.265850129636924,0.3372442591004237,-0.9440187779174001
9.383593758,1.3349159569196376,0.3416923269639919,-0.9750424761108476
9.385593724,1.407081157089241,0.34311433966778304,-1.0029479362564846
9.38759369,1.4827810483105472,0.34283102963497036,-1.0290686297828957
9.389593656,1.5623931033954555,0.34209298620699946,-1.054735382779882
9.391593622,1.6462325760015077,0.34206633854631135,-1.0812634551406528
9.393593188,1.734548827681978,0.34381977914279865,-1.1099395235328038
9.395593154,1.8275223904305005,0.3483130571161895,-1.1420087004269044
9.397593154,1.9252627881810056,0.3563870520798274,-1.1786617266740187
9.399593154,2.027807128949523,0.36875551947097346,-1.2210224774491556
9.401593187,2.135119467395191,0.385998577152974,-1.2701359210292142
9.40359322,2.2470909260441334,0.40855798104745555,-1.3269566673676647
9.405593586,2.3635405527631566,0.43673421492035985,-1.3923382393532904
9.407593619,2.484216882729978,0.470685396625688,-1.4670231945047931
9.409593652,2.608800165428402,0.5104279805306514,-1.5516342189985592
9.411593685,2.7369052111965777,0.5558392139327927,-1.6466663094839387
9.413593685,2.8680848074665937,0.606661284437393,-1.7524801510228993
9.415593651,3.00183365182543,0.6625070758356975,-1.8692967914239262
9.417593617,3.13759274712448,0.7228674322586311,-1.9971937027813575
9.419593583,3.2747542027936123,0.7871198144283894,-2.1361023096004965
9.421593549,3.4126663860496724,0.854538217766992,-2.285807048878048
9.423593515,3.550639366677314,0.9243042099607008,-2.445946010466766
9.425593481,3.687950599438051,0.9955189353234246,-2.6160131858408264
9.427593447,3.82385078895387,1.0672159250130853,-2.7953623302337234
9.429593447,3.957569883179764,1.1383745459526724,-2.983212417687342
9.43159348,4.0883231433484815,1.2079339172756411,-3.178654641831016
9.433593513,4.21531724047114,1.2748071212493843,-3.3806608884285403
9.435593613,4.337756330981642,1.3378955358969957,-3.5880935801626164
9.437593646,4.454848066811194,1.3961031189153237,-3.7997167708991486
9.439593679,4.565809498022079,1.4483504769181594,-4.014208346589486
9.441593712,4.669872829119555,1.4935885603776162,-4.230173173433764
9.443593745,4.766290993318987,1.5308118327081446,-4.446157021080059
9.445593778,4.854343012383963,1.5590707715583922,-4.660661079544149
9.447593778,4.933339113153701,1.5774835713900135,-4.872156883310422
9.449593778,5.002625575489503,1.585246928678362,-5.079101454789199
9.451593778,5.061589289994595,1.581645804408012,-5.2799524818595
9.453594178,5.109662007370231,1.566062072787538,-5.47318335029982
9.455594178,5.146324264512365,1.537981980097273,-5.657297861047209
9.457594178,5.1711089752743895,1.4970023531255963,-5.830844473919193
9.459594178,5.18360467611597,1.4428355125468693,-5.992429933132023
9.461594344,5.183458418620765,1.3753128626404862,-6.140732145035949
9.46359431,5.170378302195585,1.2943871447319522,-6.2745121943208515
9.465594276,5.144135641308012,1.2001333574421906,-6.392625400950643
9.467594242,5.104566762516424,1.092748362058354,-6.494031335831034
9.469594208,5.051574427394533,0.972549205892184,-6.577802728412109
9.471594174,4.9851288783071075,0.8399702101903027,-6.643133213900294
9.47359414,4.905268504878069,0.6955588818654721,-6.689343881429954
9.47559374,4.81210012991207,0.5399707199264983,-6.7158885974145965
9.47759374,4.705798914484071,0.37396299789768966,-6.722358090367995
9.479593773,4.586607882897306,0.19838761264128227,-6.708482794767622
9.481593806,4.454837069240353,0.014183097780605232,-6.674134462053445
9.483593839,4.310862288373471,-0.1776340936318577,-6.619326556632594
9.485594472,4.15512353536657,-0.3759789274683383,-6.544213463767394
9.487594505,3.9881230187095724,-0.5797076345014223,-6.449088544407451
9.489594538,3.8104228340290196,-0.7876279483993258,-6.334381079375499
9.491594538,3.6226422865858052,-0.9985096193661307,-6.200652151898338
9.493594771,3.4254548725162057,-1.2110950876238393,-6.048589523396853
9.495594771,3.2195849306261244,-1.4241102027724462,-5.879001562805127
9.497594737,3.0058039785573643,-1.636274878121266,-5.692810294529512
9.499594703,2.7849267493019743,-1.846313573308577,-5.491043634501567
9.501594669,2.557806946325073,-2.052965503834704,-5.274826887625555
9.503594635,2.3253327379407867,-2.2549944824151233,-5.045373583267642
9.505594601,2.0884220140360643,-2.4511983042075847,-4.803975728274927
9.507594601,1.848017430711167,-2.6404175958953218,-4.551993559345263
9.509594634,1.6050812708516695,-2.8215440572375297,-4.290844878404608
9.511594667,1.360590151000297,-2.9935280329266654,-4.021994056020817
9.5135947,1.1155296070802447,-3.1553853622914625,-3.7469407888397326
9.515594733,0.8708885934495189,-3.3062034644170977,-3.467208697615043
9.517594766,0.627653931353621,-3.4451466264815394,-3.184333852643912
9.519594799,0.3868047440247885,-3.571460473387407,-2.8998533133270707
9.521594632,0.14930691642919458,-3.6844756069543783,-2.6152937681540718
9.523594665,-0.08389238198412634,-3.783610412879904,-2.332160360686673
9.525594665,-0.31187007319806304,-3.86837304322771,-2.051925786087092
9.527594665,-0.5337324072597823,-3.9383625912189038,-1.7760197414121761
9.529594665,-0.7486200224365221,-3.9932694834468685,-1.505818811263475
9.531594431,-0.9557127927745074,-4.032875122204064,-1.2426368684447542
9.533594431,-1.1542344282716799,-4.057050817307272,-0.987716067026022
9.535593931,-1.3434567944069857,-4.065756052562892,-0.7422185026111976
9.537593931,-1.5227039194748355,-4.059036136767119,-0.5072186115592606
9.539593897,-1.691355660069579,-4.037019292860611,-0.28369637723014224
9.541593863,-1.8488509972203007,-3.999913241573952,-0.0725314067269155
9.543593829,-1.9946909381997866,-3.948001337668005,0.1255020642849253
9.545593195,-2.1284410020364,-3.8816383177666567,0.30973918866178374
9.547593695,-2.2497332703163324,-3.8012457188749473,0.4796275062623098
9.549593661,-2.358267988962578,-3.7073070260552217,0.6347288948159179
9.551593627,-2.453814711188437,-3.6003626064843766,0.774720457351537
9.55359336,-2.536212976530679,-3.481004485313578,0.8993943446247941
9.55559336,-2.6053725255402638,-3.349871016453753,1.0086565256561717
9.557593393,-2.6612730541702585,-3.207641498659246,1.1025245339867915
9.559593426,-2.703963516047168,-3.0550307841256696,1.181124231133607
9.561593459,-2.733560984593564,-2.8927839233087997,1.2446856416803649
9.563593492,-2.750249090364363,-2.7216708858615952,1.2935379262623112
9.565593192,-2.7542760519498444,-2.54248139353455,1.328103569199093
9.567593225,-2.7459523213635917,-2.3560198966690136,1.348891866467306
9.569593225,-2.7256478669510193,-2.1631007216299505,1.3564918068136615
9.571593191,-2.6937891185241014,-1.9645434122669843,1.3515644438975127
9.573593157,-2.6508556006928297,-1.7611682843292689,1.334834860385297
9.575593123,-2.597376281307525,-1.55379220772751,1.3070838259903115
