Time (s),X (m/s^2),Y (m/s^2),Z (m/s^2)
9.006352708,0.9861525136477808,2.6692931811388276,1.9476723591504914
9.016278708,0.3949104552146868,3.1622994224541747,1.9955145520906918
9.026203708,-0.1956425368301226,3.651066705314242,2.0360525206351983
9.036129708,-0.7828433739475195,4.134189529081942,2.0689249545131636
9.046054708,-1.3640735421748673,4.610266165527695,2.0938075490631607
9.055980708,-1.9367796065168492,5.0779053330640345,2.1104162429081943
9.065905708,-2.4984928369252772,5.535732989019767,2.1185103012950774
9.075831708,-3.0468477249426296,5.982399197092082,2.1178952141410656
9.085756708,-3.579599180487364,6.416585025844568,2.108425374221055
9.095682708,-4.094638223200375,6.837009433791944,2.0900064983340223
9.105607708,-4.590006011245496,7.242436097228694,2.062597752292202
9.115533708,-5.063906080962173,7.6316801381738,2.026213539474014
9.125458708,-5.514714701515519,8.003614710989948,1.9809249137766147
9.135383708,-5.940989278320577,8.357177407026276,1.9268605820746825
9.145309708,-6.341474767280876,8.691376437076343,1.8642074681872367
9.155234708,-6.715108089309579,9.005296551543225,1.7932108181715745
9.165160708,-7.061020561470646,9.29810465771204,1.71417383384479
9.175085708,-7.378538386844422,9.569055092333313,1.6274568268703036
9.185011708,-7.667181268933485,9.817494506156748,1.5334758894061677
9.194936708,-7.926659237423764,10.042866315650603,1.4327010796045974
9.204862708,-8.156867790303084,10.244714676122225,1.3256541218592046
9.214787708,-8.357881472946493,10.42268792961518,1.2129056232747057
9.224713708,-8.529946028061879,10.576541479987299,1.0950718097686007
9.234638708,-8.67346926150922,10.706140046456857,0.9728107875559223
9.244563708,-8.789010778060792,10.811459246013776,0.8468183384483716
9.254489708,-8.877270748219045,10.892586454942363,0.7178232606427751
9.264414708,-8.939077872184953,10.949720900653725,0.5865822712519628
9.274340708,-8.97537670972292,10.983172937287419,0.4538744936182131
9.284265708,-8.987214544762473,10.993362462436586,0.32049556137567303
9.294191708,-8.975727951114228,10.980816438421668,0.18725138095303584
9.304116708,-8.942129220854357,10.946165490216151,0.0549516032610942
9.314042708,-8.88769280999147,10.89013956337555,-0.07559713680399947
9.323967708,-8.813741947269069,10.813562638735082,-0.2035981475219201
9.333892708,-8.721635541750842,10.717346515801898,-0.3282717026587041
9.343818708,-8.612755513560252,10.602483693347141,-0.4488620822539352
9.353743708,-8.488494660110733,10.470039393329998,-0.564644550636243
9.363669708,-8.350245157637657,10.321142792432719,-0.6749321861887941
9.373594708,-8.199387785095345,10.15697754349364,-0.7790824736101704
9.383520708,-8.037281944789298,9.978771686336973,-0.8765035664534596
9.393445708,-7.865256541728939,9.787787063431105,-0.9666601258629834
9.403371708,-7.6846017717693895,9.585308370242696,-1.0490786407883423
9.413296708,-7.496561857151688,9.37263198303868,-1.1233521356998903
9.423222708,-7.302328756847381,9.151054718120427,-1.189144174306819
9.433147708,-7.103036867857393,8.921862685665651,-1.246192072441709
9.443072708,-6.899758722067819,8.686320407547,-1.294309240520123
9.452998708,-6.693501671401029,8.445660369883724,-1.3333865861998175
9.462923708,-6.485205542020665,8.201073175139767,-1.3633929216696232
9.472849708,-6.275741226635414,7.953698443146244,-1.384374338206493
9.482774708,-6.065910173042481,7.704616585565126,-1.3964525335867093
9.492700708,-5.856444717513272,7.454841547553051,-1.3998221045270163
9.502625708,-5.648009203620286,7.2053145796827165,-1.3947468438419066
9.512551708,-5.441201820160838,6.956899077905283,-1.3815551072648253
9.522476708,-5.23655708516032,6.7103765116743315,-1.3606343359287572
9.532402708,-5.034548896078251,6.466443448889795,-1.3324248372119118
9.542327708,-4.835594059425875,6.225709677468162,-1.2974129399960805
9.552252708,-4.640056206449446,5.988697413322552,-1.2561236511006537
9.562182458,-4.448249995796306,5.755841571201686,-1.209112947499498
9.572107458,-4.260445500002736,5.527491058704234,-1.1569598432061383
9.582033458,-4.076872671771621,5.303911037456921,-1.1002583704166913
9.591958458,-3.897725789973914,5.085286081799221,-1.039609612433195
9.601884458,-3.723167794593642,4.871724156064734,-0.9756139217905377
9.611809458,-3.553334433198228,4.663261327031211,-0.9088634511155861
9.621735458,-3.3883381565546333,4.459867127648862,-0.8399351164332217
9.631660458,-3.2282717154117764,4.261450490342321,-0.76938410246526
9.641585458,-3.0732114230555347,4.067866171349403,-0.6977380065714472
9.651511458,-2.9232200590698048,3.8789215904640044,-0.6254917027719028
9.661436458,-2.7783493992913226,3.694384012739613,-0.5531029908777946
9.671362458,-2.6386423654489772,3.5139880003484323,-0.4809890789439728
9.681287458,-2.504134795408012,3.337443064232179,-0.40952393004618115
9.691213458,-2.3748568413788984,3.164441446583903,-0.3390364865361971
9.701138458,-2.2508340092389147,2.9946659661734376,-0.2698097664962783
9.711064458,-2.1320878577387554,2.8277978578263374,-0.2020808082581183
9.720989458,-2.018636382169716,2.663524533199699,-0.13604141976098774
9.730914458,-1.9104941127923587,2.5015471814854493,-0.07183967126187835
9.740840458,-1.8076719628889606,2.3415881174329156,-0.009582054967142827
9.750765458,-1.710176863355982,2.1833977738938666,0.050663773891766885
9.760691458,-1.6180112197351033,2.0267612304830815,0.10886576259440867
9.770616458,-1.531172224127786,1.8715041702964232,0.1650238189387613
9.780542458,-1.4496510499308939,1.717498162329618,0.21916584297133515
9.790467458,-1.3734319532150479,1.5646651768154698,0.27134350837740734
9.800393458,-1.3024913017995763,1.412981252624602,0.32162786430960016
9.810318458,-1.2367965518147783,1.2624792490574135,0.3701048237799635
9.820243458,-1.1763051913116502,1.1132506282435422,0.4168706008135205
9.830169458,-1.1209636706845594,0.9654462287395349,0.4620271556707137
9.840094458,-1.0707063399046057,0.8192760056787158,0.5056777058756282
9.850020458,-1.0254544125904896,0.6750077280185485,0.5479223604526096
9.859945458,-0.9851149766707893,0.532964639199883,0.5888539350548929
9.869871458,-0.9495800709101743,0.3935221039037853,0.6285540055863013
9.879796458,-0.9187258462675992,0.2571032802315264,0.6670892564937608
9.889722458,-0.8924118315532856,0.12417387288437906,0.7045081765302608
9.899647458,-0.8704803246016304,-0.004763961873429969,0.7408381495258407
9.909572458,-0.8527559328686728,-0.12917847480121752,0.7760829814103274
9.919498458,-0.8390452899002735,-0.24851584842692218,0.8102208986328043
9.929423458,-0.8291369753896765,-0.3622082787510428,0.8432030480410655
9.939349458,-0.8228016661795744,-0.4696824939183903,0.8749525240242915
9.949274458,-0.8197925438785726,-0.5703685806501972,0.9053639440721782
9.959200458,-0.8198459821528548,-0.6637089823442655,0.9343035873539999
9.969125458,-0.8226825333095212,-0.7491675287733145,0.9616101017866604
9.979051458,-0.8280082293162887,-0.8262383563502874,0.9870957741941313
9.988976458,-0.835516206593077,-0.894454579590156,1.0105483475070496
9.998901458,-0.8448886564821692,-0.953396578093984,1.0317333602318404
10.00882746,-0.8557990941679366,-1.002699768835153,1.0503969771307062
10.01875246,-0.8679149281997715,-1.0420617410468214,1.0662692755606886
10.02867846,-0.8809003011608759,-1.0712486412316422,1.0790679482141012
10.03860346,-0.894419160026133,-1.0901007090502857,1.0885023792435646
10.04852946,-0.9081385030127689,-1.098536880523636,1.0942780463064212
10.05845446,-0.9217317389846168,-1.0965583917837944,1.0961011954388928
10.06837946,-0.9348820865999474,-1.084251333300217,1.0936837287124956
10.07830546,-0.9472859343059193,-1.0617881206327988,1.0867482367332353
10.08823046,-0.9586560796886895,-1.029427863424452,1.075033100144237
10.09815646,-0.9687247679177268,-0.9875156295560783,1.058297577638371
10.10808146,-0.9772464539534784,-0.9364806159091426,1.0363267940301213
10.11800746,-0.9840002211606467,-0.8768332508272068,1.0089365420717744
10.12793246,-0.9887917989014386,-0.8091612661556513,0.9759778165953958
10.13785846,-0.9914551326048049,-0.7341247887461958,0.9373410084784136
10.14778346,-0.9918534713839352,-0.6524505125824427,0.892959696848114
10.15770846,-0.9898799506333615,-0.5649250233343569,0.8428139885364183
10.16763446,-0.9854576600764308,-0.47238735738873106,0.7869333624229503
10.17755946,-0.9785392007722957,-0.3757208872552574,0.7253989823623656
10.18748546,-0.9691057467487442,-0.2758446343989146,0.6583454462272217
10.19741046,-0.9571656376747486,-0.17370411857101078,0.5859619411934873
10.20733646,-0.9427525382436569,-0.0702618593811147,0.5084927779297844
10.21726146,-0.9259232078145669,0.033512348799739945,0.4262372797398121
10.22718646,-0.9067549304847248,0.13665126337515004,0.3395490073465758
10.23711246,-0.8853426612835338,0.23819999329276598,0.2488343057910904
10.24703746,-0.8617959487194048,0.3372256420938389,0.15455016646655562
10.25696346,-0.8362356974760088,0.4328266639530281,0.05720140432519593
10.26688846,-0.8087908374245901,0.5241418037659958,-0.042662842069157506
10.27681446,-0.7795949659076135,0.6103584956866424,-0.14445327106674247
10.28673946,-0.7487830291546895,0.6907206001572178,-0.2475452117280153
10.29666546,-0.7164881058005573,0.7645353676278449,-0.351284011378833
10.30659046,-0.6828383513009706,0.8311795278211114,-0.45499096510194736
10.31651546,-0.6479541572038506,0.8901044162946746,-0.5579697243603732
10.32644146,-0.6119455740828362,0.9408400648765561,-0.6595131128539018
10.33636646,-0.5749100414863538,0.9829981991659457,-0.7589102701658682
10.34629246,-0.5369304623409975,1.0162741046785198,-0.8554540372272076
10.35621746,-0.49807365275487225,1.0404473431633048,-0.9484484919226848
10.36614346,-0.45838919110528187,1.0553813216421177,-1.037216538427382
10.37606846,-0.4179086828118999,1.0610217381950522,-1.1211074502397174
10.38599346,-0.3766454495419043,1.0573939498305598,-1.199504264376135
10.39591946,-0.3345946440550695,1.044599328417597,-1.271830922724869
10.40584446,-0.29173378472874606,1.0228106901956229,-1.3375590560228432
10.41577046,-0.24802369720318063,0.9922669024563809,-1.396214306277203
10.42569546,-0.20340984468052423,0.9532667872061186,-1.4473820847950252
10.43562146,-0.15782402316475466,0.9061624553359889,-1.4907126655824805
10.44554646,-0.11118639308965406,0.8513522150465622,-1.5259255181510543
10.45547146,-0.06340781394361365,0.7892732037023524,-1.552812790311913
10.46539746,-0.014392443304911321,0.720393891762739,-1.5712418611554224
10.47532246,0.03595944396093683,0.6452066004101422,-1.5811568979921242
10.48524846,0.08774846642854224,0.5642201614766942,-1.5825793691109322
10.49517346,0.14107303215555775,0.47795283094560376,-1.5756074863785163
10.50509946,0.1960261793102239,0.3869255482374229,-1.5604145762336097
10.51502446,0.25269242244745094,0.29165561528473066,-1.5372464018835106
10.52495046,0.31114466504107213,0.19265085381464073,-1.506417481223398
10.53487546,0.37144123640501814,0.09040428696149164,-1.4683064634903176
10.54480046,0.4336231070431413,-0.01461061782484376,-1.4233506438744072
10.55472646,0.4977113312546963,-0.12194411436301873,-1.3720397107682585
10.56465196,0.5637047602011249,-0.23117372735103958,-1.3149088358586034
10.57457796,0.6315780635376224,-0.3419071681543386,-1.2525312320430075
10.58450296,0.7012800938479421,-0.45378460779061436,-1.1855103158875144
10.59442796,0.77273262531519,-0.5664803089420624,-1.1144716177634608
10.60435396,0.8458294950576902,-0.6797036295160674,-1.040054583404311
10.61427896,0.9204361707554392,-0.7931994184170305,-0.9629044068310936
10.62420496,0.9963897606851704,-0.9067478284728159,-0.8836640284665599
10.63412996,1.0734994724152678,-1.0201635720991018,-0.8029664251186351
10.64405596,1.151547515614877,-1.1332946435999456,-0.7214273102927428
10.65398096,1.2302904344046672,-1.2460205297641478,-0.6396383528514549
10.66390596,1.3094608463999895,-1.358249929232568,-0.558161008491136
10.67383196,1.388769559058147,-1.4699180019418854,-0.4775210423861747
10.68375696,1.4679080287100619,-1.580983172946156,-0.39820380434166613
10.69368296,1.5465511234153246,-1.6914235196137548,-0.3206503013386274
10.70360796,1.6243601473166895,-1.8012327768852505,-0.24525409675392007
10.71353396,1.7009860812431905,-1.9104160013740288,-0.17235905033377344
10.72345896,1.7760729917363487,-2.018984941458359,-0.10225789787026958
10.73338496,1.8492615584658953,-2.1269531677149454,-0.03519165452981956
10.74330996,1.9201926683731492,-2.234331027223116,0.028650188866393513
10.75323496,1.9885110242540478,-2.341120497166386,0.08912872096588528
10.76316096,2.053868716554383,-2.4473100267212997,0.14615397198938104
10.77308596,2.115928710560894,-2.5528694684879403,0.19968264567077137
10.78301196,2.174368206900729,-2.6577452086340276,0.24971528709041949
10.79293696,2.228881840219838,-2.7618556072661744,0.29629295306919184
10.80286296,2.2791846874860417,-2.865086857957909,0.3394934515365623
10.81278796,2.3250150624278207,-2.9672893691597855,0.3794272160204951
10.82271296,2.3661370760863947,-3.0682747614454318,0.416232881280293
10.83263896,2.4023429459549943,-3.1678135638830733,0.45007262616012955
10.84256396,2.4334550383347233,-3.2656336807588473,0.48112735003027773
10.85248996,2.4593276306120466,-3.3614196868453607,0.5095917496285374
10.86241496,2.479848382193471,-3.4548129956975924,0.5356693635247974
10.87233996,2.494939504871295,-3.5454129310997216,0.5595676515543865
10.88226596,2.5045586255302617,-3.6327787166083487,0.5814931760719613
10.89219096,2.50869933631554,-3.7164323820177216,0.6016469504118741
10.90211696,2.5073914294359807,-3.79586256866078,0.6202200172989325
10.91204196,2.5007008153302452,-3.8705291981855887,0.63738931623057
10.92196796,2.488729123777388,-3.9398689523620267,0.6533138943940155
10.93189296,2.471612987816096,-4.003301495084264,0.6681315108616636
10.94181796,2.4495230103673546,-4.060236352421976,0.6819556787866845
10.95174396,2.4226624133808645,-4.110080352607672,0.6948731849628538
10.96166896,2.3912653690112764,-4.152245515407747,0.706942120132789
10.97159496,2.355595011752017,-4.186157269473752,0.718190446748705
10.98151996,2.315941130135495,-4.211262867015915,0.7286151238684524
10.99144596,2.272617537493885,-4.227039857696759,0.738181802023948
11.00137096,2.225959124153147,-4.233004478622822,0.7468250943223113
11.01129596,2.176318598556512,-4.228719815484186,0.7544494232461123
11.02122196,2.1240629319949775,-4.213803591669762,0.7609304350557463
11.03114696,2.0695695305135025,-4.187935447464573,0.7661169653226848
11.04107296,2.013222167803028,-4.150863579914514,0.7698335304750659
11.05099796,1.9554067241048756,-4.102410625491653,0.7718833120913379
11.06092396,1.8965067878787942,-4.042478682284769,0.7720515936303743
11.07084896,1.8368991885575896,-3.9710533857539656,0.7701096034043946
11.08077396,1.7769495392199515,-3.8882069712353093,0.7658187123005216
11.09069996,1.717007876364157,-3.794100276100912,0.7589349291381633
11.10062496,1.6574044889700992,-3.6889836536166674,0.749213629996641
11.11055096,1.5984460295043128,-3.5731967883384277,0.7364144504915995
11.12047596,1.54041199464863,-3.4471674189567763,0.7203062629304405
11.13040096,1.4835516536291822,-3.3114089886866163,0.7006721554713937
11.14032696,1.4280814887997273,-3.1665172556373484,0.6773143296928458
11.15025196,1.3741831988678872,-3.013165906341043,0.6500588368215382
11.16017796,1.3220023013671465,-2.852101225277864,0.6187600799354839
11.17010296,1.271647357944507,-2.6841358825646497,0.583305017500561
11.18002896,1.2231898334098907,-2.5101419116145376,0.5436170107701647
11.18995396,1.1766645871419321,-2.3310429586718233,0.49965926310927117
11.19987896,1.1320709836249474,-2.147805896213523,0.4514378033920369
11.20980496,1.0893745979487648,-1.9614319015492174,0.3990039689270878
11.21972996,1.0485094822031518,-1.7729471099530707,0.34245634656554347
11.22965596,1.0093809498208346,-1.583392958091664,0.2819421342130406
11.23958096,0.9718688269788714,-1.3938163384316176,0.2176578891467078
11.24950696,0.9358311130952809,-1.205259688878287,0.14984963444402133
11.25943196,0.901107986227931,-1.01875114415713,0.0788123005285528
11.26935696,0.86752608377293,-0.8352948762610625,0.004888485455767243
11.27928296,0.8349029843033838,-0.6558617504512582,-0.07153347456468861
11.28920796,0.8030518128796793,-0.48138042080375215,-0.1500221233205976
11.29913396,0.7717858900314761,-0.31272898530715687,-0.23010617898348912
11.30905896,0.7409233441781634,-0.15072731498007338,-0.31127848006420594
11.31898396,0.7102916087288653,0.0038698361171884835,-0.39300054648025656
11.32890996,0.6797317285227543,0.15037884329184012,-0.4747077086165229
11.33883496,0.6491024053376765,0.2881922622004126,-0.5558147475725521
11.34876096,0.6182837182501666,0.4167828496468536,-0.6357219807374921
11.35868596,0.5871804610045734,0.5357065023407394,-0.713821718401154
11.36861196,0.5557250449558773,0.6446040801487443,-0.7895050095145075
11.37853696,0.5238799226549808,0.7432020999797031,-0.8621685881735347
11.38846196,0.4916394938580579,0.831312306908683,-0.9312219269742618
11.39838796,0.45903146266216693,0.9088301499733918,-0.9960942989001772
11.40831296,0.4261176215664635,0.9757322107198051,-1.0562417456048017
11.41823896,0.39299404556954226,1.032072652580751,-1.1111538468179551
11.42816396,0.3597906870186831,1.0779787782352062,-1.1603601834715305
11.43808996,0.32667036987869397,1.1136457999092328,-1.2034363865416204
11.44801496,0.2938271904139196,1.1393309435493715,-1.2400096649953758
11.45793996,0.2614843400295983,1.1553470208236218,-1.2697637098982626
11.46786596,0.22989137530111856,1.162055611409083,-1.292442877992532
11.47779096,0.19932097013583333,1.1598600003281203,-1.3078555675179449
11.48771696,0.1700651954688429,1.1491980100067336,-1.3158767125638748
11.49764196,0.14243138230310887,1.1305348542438909,-1.316449340308382
11.50756696,0.11673763314443282,1.1043561231177754,-1.309585157466227
11.51749296,0.09330805380646749,1.0711609872956238,-1.295364156087287
11.52741796,0.07246778168656556,1.0314556908941293,-1.2739332518152868
11.53734396,0.05453788831032768,0.9857473864063763,-1.2455039878398784
11.54726896,0.03983023404027776,0.9345383539716687,-1.2103493546486093
11.55719396,0.02864235221211346,0.87832064009983,-1.16879979014788
11.56711675,0.02125243933704636,0.8175711475220547,-1.1212384376413667
11.57704175,0.017914527672172196,0.7527472080587786,-1.068095750362689
11.58696775,0.01885391570157005,0.68428267413164,-1.0098435395655954
11.59689275,0.024262929336542557,0.6125845709782243,-0.9469885677438755
11.60681875,0.034297080904708996,0.5380303586819785,-0.8800657906825823
11.61674375,0.0490716850252976,0.46096585719412664,-0.8096313550804825
11.62666875,0.06865898228997054,0.381703884049001,-0.736255464557586
11.63659475,0.09308581449365795,0.300523640217611,-0.6605152334917945
11.64651975,0.12233188795740435,0.21767085543821957,-0.5829876499627621
11.65644575,0.15632865199850546,0.13335867593543166,-0.5042427636035645
11.66637075,0.1949588069704052,0.0477692516991766,-0.4248372038280078
11.67629575,0.2380564422507395,-0.0389440378820943,-0.34530812243770415
11.68622175,0.28540779180336295,-0.12665379133901028,-0.26616764347609223
11.69614675,0.3367525849431265,-0.2152553002511264,-0.18789789198831167
11.70607275,0.3917859625792947,-0.30466284652837156,-0.11094666159360593
11.71599775,0.4501609238191861,-0.39480565355938385,-0.035723768469386595
11.72592375,0.5114912637579018,-0.48562355949379354,0.0374018733503736
11.73584875,0.5753549599903951,-0.5770624774459369,0.10810443335873438
11.74577375,0.6412979623056804,-0.6690697043973747,0.17610259357996677
11.75569975,0.708838336768864,-0.7615891385306125,0.2411602292082398
11.76562475,0.7774707117726662,-0.85455646461198,0.30308635870833656
11.77555075,0.8466709696376243,-0.94789437034417,0.3617343965232212
11.78547575,0.9159011233716242,-1.0415078642122617,0.41700075791014224
11.79540075,0.9846143153063892,-1.135279776010026,0.4688228802107991
11.80532675,1.052259873708146,-1.2290665316942901,0.5171767346693422
11.81525175,1.1182883655705111,-1.322694301192253,0.5620739065390721
11.82517775,1.1821565880935323,-1.4159556196524288,0.6035583202317384
