"Time (s)","Acceleration x (m/s^2)","Acceleration y (m/s^2)","Acceleration z (m/s^2)"
8.524388000E-3,-1.525106430E0,8.040028572E0,4.778826714E0
1.352438800E-2,-1.484405041E0,8.095095634E0,5.020940304E0
1.849738800E-2,-1.436521053E0,8.107066154E0,5.171774864E0
2.349788800E-2,-1.335964561E0,8.128614426E0,5.205293655E0
2.849822100E-2,-1.247379065E0,8.154950142E0,5.162198067E0
3.349847100E-2,-1.213860273E0,8.166921616E0,5.076006889E0
3.849847100E-2,-1.230619669E0,8.147768021E0,4.951508522E0
4.349847100E-2,-1.278503656E0,8.107066154E0,4.800374508E0
4.849847100E-2,-1.314416766E0,8.066365242E0,4.635174274E0
5.349847100E-2,-1.297657371E0,8.061576843E0,4.467580318E0
5.849847100E-2,-1.237802267E0,8.133402824E0,4.314351559E0
6.349847100E-2,-1.161187768E0,8.257901192E0,4.170699596E0
6.849847100E-2,-1.106121182E0,8.341697693E0,4.074931145E0
7.349847100E-2,-1.082179189E0,8.348880768E0,4.062960148E0
7.849847100E-2,-1.041477680E0,8.253112793E0,4.161122322E0
8.349847100E-2,-9.217676520E-1,7.992144585E0,4.390965939E0
8.849847100E-2,-7.900865674E-1,7.633014202E0,4.683058739E0
9.349847100E-2,-6.248866320E-1,7.151779652E0,5.035305500E0
9.849847100E-2,-4.525041282E-1,6.625055313E0,5.317821026E0
1.034984710E-1,-2.920926213E-1,6.177339554E0,5.250783443E0
1.084984710E-1,-2.633621916E-2,5.873276234E0,5.205293655E0
1.134984710E-1,1.987187415E-1,5.681739807E0,5.353734493E0
1.184984710E-1,3.734954596E-1,5.581183434E0,5.641038418E0
1.234984710E-1,4.285621047E-1,5.535693645E0,5.992986202E0
1.284984710E-1,3.902548850E-1,5.384859085E0,6.392817974E0
1.334984710E-1,3.782838583E-1,5.126285076E0,6.986579895E0
1.384984710E-1,5.099649429E-1,4.841075897E0,7.843704224E0
1.434984710E-1,7.757213712E-1,4.563348293E0,8.866027832E0
1.484984710E-1,1.055842996E0,4.314351559E0,9.806949615E0
1.534984710E-1,1.273715258E0,4.031835556E0,1.065210247E1
1.584984710E-1,1.359906554E0,3.713406801E0,1.139430523E1
1.634985040E-1,1.333570361E0,3.418920040E0,1.197849083E1
1.684994040E-1,1.209071875E0,3.172317266E0,1.236156273E1
1.734993700E-1,1.010353088E0,2.985569477E0,1.261295414E1
1.784993360E-1,7.972691655E-1,2.885013103E0,1.279730701E1
1.834993020E-1,5.363011956E-1,2.817975283E0,1.298166084E1
1.884993020E-1,3.112462163E-1,2.753331900E0,1.308700562E1
1.934993020E-1,1.963245422E-1,2.655169725E0,1.300799751E1
1.984993020E-1,2.609679997E-1,2.506729126E0,1.270872211E1
2.034993020E-1,5.219359994E-1,2.331952572E0,1.213171959E1
2.084993020E-1,7.757213712E-1,2.176329374E0,1.146613121E1
2.134993020E-1,9.528923035E-1,2.099714994E0,1.080533123E1
2.184993020E-1,1.015141487E0,2.154781580E0,1.017805099E1
2.234993020E-1,9.744400978E-1,2.343923569E0,9.613018990E0
2.284993020E-1,9.145850539E-1,2.621650934E0,9.138967514E0
2.334993020E-1,8.714894056E-1,2.918531895E0,8.734347343E0
2.384993020E-1,8.188169599E-1,3.169923067E0,8.368034363E0
2.434993350E-1,7.302315235E-1,3.344699860E0,8.028057098E0
2.484993350E-1,5.698199868E-1,3.423708439E0,7.726387978E0
2.534993350E-1,2.825157940E-1,3.394978046E0,7.477391243E0
2.584993350E-1,-6.703764945E-2,3.246537447E0,7.283460617E0
2.634993350E-1,-4.261679053E-1,3.043030262E0,7.154173851E0
2.684993350E-1,-7.589619160E-1,2.777273893E0,7.046434879E0
2.734993680E-1,-1.034295082E0,2.468421936E0,6.919542313E0
2.784993680E-1,-1.247379065E0,2.092532396E0,6.735188484E0
2.834993010E-1,-1.192312479E0,1.477222443E0,6.297049522E0
2.884993340E-1,-1.125274777E0,1.084573388E0,5.758354187E0
2.934993340E-1,-1.130063176E0,9.193734527E-1,5.140650272E0
2.984993340E-1,-1.077390790E0,8.762778044E-1,4.400542736E0
3.034993340E-1,-1.067813993E0,8.906430602E-1,3.624821424E0
3.084993340E-1,-1.027112484E0,8.427590132E-1,3.043030262E0
3.134993000E-1,-9.528923035E-1,7.661445141E-1,2.789244890E0
3.184993000E-1,-9.050082564E-1,6.775590777E-1,2.791639090E0
3.234993000E-1,-7.589619160E-1,5.554547906E-1,3.217807055E0
3.284993000E-1,-4.596867263E-1,3.902548850E-1,3.921702385E0
3.334993000E-1,-4.548983276E-2,7.422025502E-2,5.018546104E0
3.384993000E-1,3.591302633E-1,-3.471592367E-1,6.273107529E0
3.434993000E-1,7.685387731E-1,-7.015010715E-1,7.522881031E0
3.484993000E-1,1.103726983E0,-9.265560508E-1,8.636184692E0
3.534993000E-1,1.307234168E0,-9.768342972E-1,9.608230591E0
3.584993000E-1,1.376665950E0,-9.074024558E-1,1.046535492E1
3.634993000E-1,1.302445769E0,-7.469909191E-1,1.124107647E1
3.684993330E-1,1.156399369E0,-6.009446383E-1,1.184920311E1
3.734993330E-1,9.911994934E-1,-5.985504389E-1,1.226579475E1
3.784993330E-1,7.996633649E-1,-7.302315235E-1,1.249803257E1
3.834993330E-1,5.291185975E-1,-9.528923035E-1,1.258182907E1
3.884993330E-1,2.298433632E-1,-1.151610970E0,1.262971306E1
3.934992990E-1,-1.077390760E-1,-1.297657371E0,1.263928986E1
3.984993320E-1,-4.620809257E-1,-1.381454349E0,1.259858894E1
4.034993320E-1,-8.236053586E-1,-1.426944256E0,1.252915668E1
4.084993320E-1,-1.209071875E0,-1.448492050E0,1.242381191E1
4.134993650E-1,-1.568202138E0,-1.446097851E0,1.226579475E1
4.184993650E-1,-1.850717902E0,-1.443703651E0,1.205510521E1
4.234993310E-1,-2.044648170E0,-1.455674648E0,1.183004951E1
4.284993310E-1,-2.152387381E0,-1.491587639E0,1.162414837E1
4.334993970E-1,-2.173935175E0,-1.546654344E0,1.145176601E1
4.384993630E-1,-2.164358377E0,-1.592144132E0,1.131769085E1
4.434993630E-1,-2.255337954E0,-1.630451322E0,1.120995140E1
4.484993630E-1,-2.504334927E0,-1.673547029E0,1.110460663E1
4.534993630E-1,-2.908955097E0,-1.757344007E0,1.099926186E1
4.584993630E-1,-3.426102638E0,-1.879448295E0,1.089152241E1
4.634993630E-1,-3.983951569E0,-2.073378563E0,1.075984192E1
4.684993630E-1,-4.515464306E0,-2.260126352E0,1.060661316E1
4.734993630E-1,-4.951508522E0,-2.389413357E0,1.041747093E1
4.784997960E-1,-5.274725437E0,-2.446874142E0,1.017086792E1
4.834997960E-1,-5.406406879E0,-2.475604534E0,9.864410400E0
4.884997960E-1,-5.420772076E0,-2.525882721E0,9.562741280E0
4.934997960E-1,-5.289090633E0,-2.640804529E0,9.273042679E0
4.984997960E-1,-4.977844715E0,-2.808398485E0,9.076718330E0
5.034997960E-1,-4.443638325E0,-2.987963676E0,9.026439667E0
5.084997960E-1,-3.782838583E0,-3.210624456E0,9.141361237E0
5.134997960E-1,-3.122039080E0,-3.430891037E0,9.375992775E0
5.184997620E-1,-2.549824715E0,-3.598485231E0,9.672874451E0
5.234997620E-1,-2.121262789E0,-3.694253206E0,9.986514091E0
5.284997620E-1,-1.879448295E0,-3.742137194E0,1.030015469E1
5.334997950E-1,-1.838746905E0,-3.761290789E0,1.058985329E1
5.384998280E-1,-1.989581585E0,-3.761290789E0,1.082687950E1
5.434989610E-1,-2.319981337E0,-3.751713991E0,1.096334839E1
5.484980940E-1,-2.700659513E0,-3.770867586E0,1.099447346E1
5.534979940E-1,-3.059789658E0,-3.883395195E0,1.088673401E1
5.584974940E-1,-3.327940464E0,-4.110844135E0,1.064492035E1
5.634969600E-1,-3.485957623E0,-4.426878929E0,1.028100109E1
5.684964600E-1,-3.529053211E0,-4.735731125E0,9.816526413E0
5.734959930E-1,-3.517082214E0,-4.980238914E0,9.285013199E0
5.784955260E-1,-3.502717018E0,-5.138256073E0,8.779836655E0
5.834950590E-1,-3.521870613E0,-5.217264652E0,8.380004883E0
5.884945590E-1,-3.574543238E0,-5.241206646E0,8.080730438E0
5.934940590E-1,-3.658340216E0,-5.245995045E0,7.937077999E0
5.984935590E-1,-3.715801001E0,-5.281908035E0,7.965808392E0
6.034928920E-1,-3.754108191E0,-5.370493889E0,8.190863609E0
6.084928920E-1,-3.804386616E0,-5.518934250E0,8.593089104E0
6.134928920E-1,-3.907337189E0,-5.657797813E0,9.124602318E0
6.184929250E-1,-4.182670593E0,-5.727229595E0,9.763854027E0
6.234929580E-1,-4.888959885E0,-5.636250019E0,1.051802731E1
6.284925580E-1,-5.686528206E0,-5.478232861E0,1.120516300E1
6.334925580E-1,-6.514922142E0,-5.260360241E0,1.178934860E1
6.384925580E-1,-7.257124424E0,-5.059247494E0,1.226100636E1
6.434925580E-1,-7.757512569E0,-4.949114323E0,1.259380054E1
6.484925580E-1,-8.001721382E0,-4.891354084E0,1.278773022E1
6.534925580E-1,-8.049605370E0,-4.829104900E0,1.284279728E1
6.584925580E-1,-3.708618402E0,-4.766855717E0,1.609681702E1
6.634925910E-1,-1.963245392E0,-3.663128614E0,1.926195145E1
6.684926240E-1,-4.271255970E0,-2.774879694E0,1.672170258E1
6.734926570E-1,-6.165368557E0,-2.700659513E0,1.384117889E1
6.784926900E-1,-7.443872452E0,-3.229778051E0,1.169597435E1
6.834926560E-1,-8.494926453E0,-3.873818398E0,1.023790550E1
6.884926220E-1,-9.227552414E0,-4.273650169E0,9.170091629E0
6.934934880E-1,-9.761459351E0,-4.443638325E0,8.420706749E0
6.984943540E-1,-1.007031155E1,-4.527435303E0,7.925107002E0
7.034944870E-1,-1.009664822E1,-4.565742493E0,7.558794022E0
7.084950200E-1,-9.979331970E0,-4.462791920E0,7.180510044E0
7.134955200E-1,-9.826103210E0,-4.209006786E0,6.720823288E0
7.184960200E-1,-9.634567261E0,-3.914519787E0,6.225223541E0
7.234964860E-1,-9.462183952E0,-3.684676409E0,5.787084579E0
7.284969520E-1,-9.383175850E0,-3.564966440E0,5.487809658E0
7.334974180E-1,-9.411906242E0,-3.529053211E0,5.329792023E0
7.384979180E-1,-9.519645691E0,-3.541024208E0,5.332186222E0
7.434984510E-1,-9.636960983E0,-3.543418407E0,5.437531471E0
7.484989840E-1,-9.720758438E0,-3.497928619E0,5.588366032E0
7.534996840E-1,-9.711181641E0,-3.404554844E0,5.765536785E0
7.584996840E-1,-9.610625267E0,-3.330334663E0,5.940313816E0
7.634996840E-1,-9.493309021E0,-3.318363667E0,6.050446987E0
7.684996500E-1,-9.409511566E0,-3.363853455E0,6.069600582E0
7.734996500E-1,-9.368810654E0,-3.426102638E0,6.007351398E0
7.784996500E-1,-9.335291862E0,-3.495534420E0,5.899612427E0
7.834996830E-1,-9.304166794E0,-3.591302633E0,5.753565788E0
7.884996830E-1,-9.251494408E0,-3.711012602E0,5.581183434E0
7.934996830E-1,-9.129390717E0,-3.857059002E0,5.348946095E0
7.984996830E-1,-8.952219009E0,-3.983951569E0,5.061641693E0
8.034996830E-1,-8.703222275E0,-4.101267338E0,4.790797710E0
8.084996830E-1,-8.430283546E0,-4.225766182E0,4.577713490E0
8.134996490E-1,-8.183680534E0,-4.345476151E0,4.405331135E0
8.184996150E-1,-7.982567787E0,-4.441244125E0,4.254496574E0
8.234996150E-1,-7.817368031E0,-4.493916512E0,4.120420933E0
8.284996150E-1,-7.673715591E0,-4.486733913E0,3.981557369E0
8.334996480E-1,-7.539640427E0,-4.426878929E0,3.849876404E0
8.384996480E-1,-7.326556683E0,-4.355052948E0,3.861847401E0
8.434989810E-1,-7.065588474E0,-4.271255970E0,3.969586372E0
8.484982810E-1,-6.795043468E0,-4.192247391E0,4.101267338E0
8.534982810E-1,-6.579565525E0,-4.122815132E0,4.225766182E0
8.584982810E-1,-6.493374348E0,-4.046200752E0,4.309563160E0
8.634983140E-1,-6.558017731E0,-3.912125587E0,4.309563160E0
8.684976470E-1,-6.682516098E0,-3.749319792E0,4.278438568E0
8.734971800E-1,-6.869264126E0,-3.574543238E0,4.185064793E0
8.784965130E-1,-6.936301708E0,-3.423708439E0,4.568136692E0
8.834958460E-1,-6.816591740E0,-3.323152065E0,5.574000835E0
8.884958460E-1,-6.663362503E0,-3.359065056E0,6.162974358E0
8.934957460E-1,-6.622661114E0,-3.433285236E0,6.100725174E0
8.984950790E-1,-6.682516098E0,-3.505111217E0,5.612308025E0
9.034946790E-1,-6.708852291E0,-3.646369219E0,4.879383087E0
9.084943120E-1,-6.833351135E0,-3.711012602E0,4.156333923E0
9.134943120E-1,-6.938695908E0,-3.720589399E0,3.406949043E0
9.184943120E-1,-6.988974094E0,-3.734954596E0,2.652775526E0
9.234936120E-1,-6.941090107E0,-3.749319792E0,1.939303398E0
9.284935780E-1,-6.854898930E0,-3.770867586E0,1.338358760E0
9.334935780E-1,-6.766313076E0,-3.787626982E0,8.547300100E-1
9.384936110E-1,-6.711246490E0,-3.792415380E0,5.123591423E-1
9.434936440E-1,-6.720823288E0,-3.770867586E0,3.687070608E-1
9.484944440E-1,-6.785466671E0,-3.742137194E0,5.123591423E-1
9.534944440E-1,-6.859687328E0,-3.804386616E0,9.696516991E-1
9.584944440E-1,-6.967426300E0,-3.782838583E0,1.508347034E0
9.634944440E-1,-6.852504730E0,-3.907337189E0,1.750161409E0
9.684944440E-1,-6.811803341E0,-3.998316765E0,1.826775908E0
9.734944100E-1,-6.936301708E0,-3.847482204E0,2.140416384E0
9.784944100E-1,-6.897994518E0,-4.000710964E0,2.202665567E0
9.834944100E-1,-6.926724911E0,-4.036623955E0,2.442085743E0
9.884944430E-1,-6.809409142E0,-4.290409565E0,2.461239338E0
9.934951090E-1,-6.888417721E0,-4.434061527E0,2.674323320E0
9.984957750E-1,-6.921936512E0,-4.618414879E0,2.849100113E0
1.003495741E0,-6.728005886E0,-5.018546104E0,2.401384354E0
1.008495707E0,-6.929119110E0,-4.929960728E0,2.518700123E0
1.013495673E0,-7.008127689E0,-4.939537525E0,2.530671120E0
1.018496339E0,-6.998550892E0,-5.133467674E0,2.382230759E0
1.023496972E0,-6.974608898E0,-5.356128693E0,2.336740971E0
1.028497272E0,-6.826168537E0,-5.667374611E0,2.303221941E0
1.033497072E0,-6.711246490E0,-5.969044209E0,2.442085743E0
1.038496672E0,-6.603507519E0,-6.462249756E0,2.504334927E0
1.043495838E0,-6.507739544E0,-7.463026047E0,1.977610588E0
1.048496471E0,-7.094318867E0,-8.518868446E0,1.678335428E0
1.053496837E0,-7.565976620E0,-9.895534515E0,8.188169599E-1
1.058496570E0,-8.284236908E0,-1.042944145E1,4.620809257E-1
1.063495703E0,-8.727164268E0,-1.014213753E1,6.272808313E-1
1.068495336E0,-8.858845711E0,-9.648932457E0,8.858546019E-1
1.073496602E0,-8.710405350E0,-9.270648003E0,1.065419793E0
1.082372538E0,-8.461407661E0,-8.945036888E0,1.089361787E0
1.087372871E0,-8.269871712E0,-8.549993515E0,1.096544385E0
1.092371937E0,-8.116642952E0,-8.071153641E0,1.185129881E0
1.097371903E0,-7.905953407E0,-7.565976620E0,1.410184860E0
1.102370203E0,-7.644985199E0,-7.075165272E0,1.709460020E0
1.107369836E0,-7.357681274E0,-6.613084316E0,2.152387381E0
1.112368969E0,-7.067982674E0,-6.218040943E0,2.609679937E0
1.117369002E0,-6.888417721E0,-5.214870453E0,3.921702385E0
1.122368335E0,-6.517316341E0,-5.121496677E0,4.050989151E0
1.127368335E0,-6.914753914E0,-5.174169064E0,3.995922565E0
1.132368301E0,-7.228394032E0,-5.566818237E0,2.973598480E0
1.137368301E0,-7.893982410E0,-5.834969044E0,1.941697598E0
1.142368301E0,-8.322544098E0,-6.191704750E0,1.194706678E0
1.147368334E0,-8.846874237E0,-6.744765282E0,5.578489900E-1
1.152368334E0,-9.253889084E0,-7.211634636E0,5.889736414E-1
1.157368334E0,-9.507674217E0,-7.515698433E0,8.092401624E-1
1.162368334E0,-9.608230591E0,-7.621043205E0,1.017535686E0
1.167368334E0,-9.701604843E0,-7.647379398E0,1.163581967E0
1.172368334E0,-9.696816444E0,-7.637802601E0,1.292868972E0
1.177368167E0,-9.610625267E0,-7.604283810E0,1.448492050E0
1.182368533E0,-9.627384186E0,-7.556399822E0,1.692700624E0
1.187369433E0,-1.019959831E1,-7.453449249E0,2.197877169E0
1.192369466E0,-1.107587624E1,-7.427113056E0,2.607285738E0
1.197370399E0,-1.187314510E1,-7.453449249E0,2.829946518E0
1.202370399E0,-1.247648430E1,-7.522881031E0,2.829946518E0
1.207370399E0,-1.289068127E1,-7.601889610E0,2.707842112E0
1.212371032E0,-1.293377686E1,-7.774271965E0,2.293645144E0
1.217371932E0,-1.270393372E1,-7.963414192E0,1.812410712E0
1.222372332E0,-1.214847851E1,-7.958625793E0,1.628057122E0
1.227371765E0,-1.145655441E1,-7.898770809E0,1.608903527E0
1.232371765E0,-1.066167927E1,-7.800608635E0,1.642422318E0
1.237371398E0,-9.866804123E0,-7.707234383E0,1.529894829E0
1.242372298E0,-9.143755913E0,-7.393594265E0,1.529894829E0
1.247372298E0,-8.593089104E0,-7.151779652E0,1.252167463E0
1.252373198E0,-8.300996780E0,-6.833351135E0,7.805097699E-1
1.257373564E0,-8.188468933E0,-6.421548367E0,1.675941236E-2
1.262374464E0,-8.097489357E0,-5.959467411E0,-1.151610970E0
1.267374464E0,-7.621043205E0,-5.478232861E0,-1.934514999E0
1.272375164E0,-6.938695908E0,-5.219658852E0,-1.848323703E0
1.277375164E0,-6.091148376E0,-5.068824291E0,-1.173158884E0
1.282375164E0,-5.222053051E0,-4.843470097E0,-2.633621991E-1
1.287375130E0,-4.477157116E0,-4.455609322E0,5.386953950E-1
1.292375130E0,-3.866635799E0,-3.885789394E0,1.007958889E0
1.297375130E0,-3.337517262E0,-3.294421434E0,1.235408068E0
1.302375163E0,-2.808398485E0,-2.655169725E0,1.237802267E0
1.307375196E0,-2.339135170E0,-2.080561161E0,1.192312479E0
1.312375196E0,-1.905784607E0,-1.572990537E0,1.142034173E0
1.317375196E0,-1.486799240E0,-1.194706678E0,1.125274777E0
1.322374529E0,-1.058237195E0,-9.672574997E-1,1.149216771E0
1.327373862E0,-6.009446383E-1,-8.643068075E-1,1.252167463E0
1.332373862E0,-1.364694983E-1,-8.547300100E-1,1.517923832E0
1.337373162E0,2.992752194E-1,-9.241618514E-1,1.977610588E0
1.342373562E0,5.961562395E-1,-1.082179189E0,2.449268341E0
1.347373562E0,6.727706790E-1,-1.323993564E0,3.031059265E0
1.352373595E0,6.129156351E-1,-1.532289028E0,3.548206806E0
1.357373595E0,-2.681505978E-1,-1.683123827E0,3.038241863E0
1.362373595E0,-2.782062292E0,-2.166752577E0,1.843535304E0
1.367373561E0,-5.715258598E0,-3.059789658E0,7.709329724E-1
1.372373561E0,-8.023268700E0,-3.945644379E0,2.298433632E-1
1.377373561E0,-9.806949615E0,-4.814739704E0,3.615244627E-1
1.382373027E0,-9.912294388E0,-5.365705490E0,3.232172430E-1
1.387372360E0,-9.632172585E0,-5.739200592E0,3.639186621E-1
1.392372193E0,-9.249100685E0,-5.753565788E0,-2.418143749E-1
1.397372226E0,-8.348880768E0,-5.389647484E0,-5.937620401E-1
1.402372226E0,-8.078335762E0,-4.951508522E0,-1.106121182E0
1.407372226E0,-7.932289600E0,-4.896441936E0,-1.853112102E0
1.412372192E0,-7.628225803E0,-5.044882298E0,-2.042253971E0
1.417372192E0,-7.379229069E0,-5.260360241E0,-1.395819545E0
1.422372192E0,-6.842927933E0,-5.358522892E0,-4.261679053E-1
1.427372225E0,-6.907571316E0,-5.334580898E0,5.315127969E-1
1.432372258E0,-7.434295654E0,-5.444714069E0,1.405396342E0
1.437372258E0,-8.037634850E0,-5.858911037E0,2.779668093E0
1.442372224E0,-8.760683060E0,-6.584353924E0,4.462791920E0
1.447372190E0,-9.282619476E0,-7.211634636E0,5.516540051E0
1.452372190E0,-9.330503464E0,-7.692869186E0,5.183745861E0
1.457372190E0,-9.122207642E0,-8.138191223E0,4.151545525E0
1.462372223E0,-8.557176590E0,-8.538022995E0,2.607285738E0
1.467372223E0,-7.908347607E0,-8.966584206E0,1.051054597E0
1.472372889E0,-6.943484306E0,-9.553164482E0,-4.572925270E-1
1.477373555E0,-6.265924931E0,-1.006073475E1,-1.757344007E0
1.482373555E0,-6.019322395E0,-1.054675770E1,-2.102109194E0
1.487374221E0,-5.890035629E0,-1.092504120E1,-1.745373011E0
1.492374187E0,-5.890035629E0,-1.137515163E1,-1.113303781E0
1.497374187E0,-5.959467411E0,-1.189948177E1,-8.547300100E-1
1.502374187E0,-6.071994781E0,-1.246930218E1,-8.595184088E-1
1.507374220E0,-6.206069946E0,-1.284758568E1,-9.696516991E-1
1.512374220E0,-6.218040943E0,-1.299363232E1,-7.996633649E-1
1.517374220E0,-6.167762756E0,-1.287392139E1,-4.836287498E-1
1.522374186E0,-6.194098949E0,-1.266083813E1,-3.806780577E-1
1.527374152E0,-6.191704750E0,-1.243338871E1,-4.094084799E-1
1.532374685E0,-6.151003361E0,-1.226340008E1,-2.226607651E-1
1.537375351E0,-5.942708015E0,-1.197370243E1,3.351882398E-1
1.542375551E0,-5.693710804E0,-1.163372517E1,8.738836050E-1
1.547375551E0,-5.585971832E0,-1.136318016E1,9.145850539E-1
1.552375584E0,-5.408801079E0,-1.100644493E1,7.900865674E-1
1.557375617E0,-5.169380665E0,-1.057548809E1,6.751648784E-1
1.562375617E0,-4.927566528E0,-1.012777233E1,7.589619160E-1
1.567375583E0,-4.805162907E0,-9.730335236E0,7.661445141E-1
1.572375549E0,-4.826710701E0,-9.433453560E0,5.578489900E-1
1.577375549E0,-4.862623692E0,-9.182063103E0,4.525041282E-1
1.582375549E0,-4.884171486E0,-8.957007408E0,4.189853072E-1
1.587375582E0,-4.836287498E0,-8.712799072E0,6.224924326E-1
1.592375582E0,-4.783615112E0,-8.490138054E0,7.134721279E-1
1.597375582E0,-4.786009312E0,-8.348880768E0,4.644751251E-1
1.602375548E0,-4.711789131E0,-8.200440407E0,2.561795712E-1
1.607375514E0,-4.544194698E0,-8.061576843E0,3.423708379E-1
1.612375480E0,-4.378994942E0,-7.996932983E0,5.434837937E-1
1.617375480E0,-4.352658749E0,-8.059182167E0,5.075707436E-1
1.622375513E0,-4.383783340E0,-8.190863609E0,3.854664862E-1
1.627375546E0,-4.359841347E0,-8.310573578E0,4.381389022E-1
1.632375479E0,-4.345476151E0,-8.382399559E0,4.213795066E-1
1.637375479E0,-4.355052948E0,-8.463802338E0,3.471592367E-1
1.642375479E0,-4.402936935E0,-8.545205116E0,2.729389966E-1
1.647375445E0,-4.505887508E0,-8.624214172E0,1.771709323E-1
1.652375445E0,-4.596867085E0,-8.724770546E0,2.705447972E-1
1.657375445E0,-4.721365929E0,-8.743924141E0,3.806780577E-1
1.662375478E0,-4.800374508E0,-8.681674957E0,4.118026793E-1
1.667375478E0,-4.786009312E0,-8.590695381E0,4.764461517E-1
1.672375478E0,-4.632780075E0,-8.499714851E0,6.129156351E-1
1.677375478E0,-4.434061527E0,-8.363245964E0,7.230489254E-1
1.682375478E0,-4.175487995E0,-8.200440407E0,7.733271718E-1
1.687375478E0,-3.907337189E0,-8.116642952E0,8.259995580E-1
1.692375444E0,-3.643975019E0,-8.047211647E0,8.236053586E-1
1.697375410E0,-3.433285236E0,-8.001721382E0,7.924807668E-1
