Time (s),X (m/s^2),Y (m/s^2),Z (m/s^2)
6.004415208,0.6276952100379918,0.04472781395233585,-0.09258350921579797
6.014341208,1.6201945666098732,2.2801606639750878,0.004515335493437991
6.024266208,2.60019910320987,4.479494165142173,0.1111823802293819
6.034192208,3.5378809891641647,6.600360899209257,0.22403087445400754
6.044117208,4.405897732719438,8.602218035426167,0.339061510495705
6.054043208,5.180505156146307,10.447118501973296,0.4517950918116705
6.063968208,5.842465301910229,12.100398225592448,0.5574435038918668
6.073894208,6.3777055317683775,13.531270149254377,0.6511136569465865
6.083820208,6.777698293441326,14.713318709706034,0.7280356572831003
6.093745208,7.039546176973851,15.624891343761536,0.7838034294697733
6.103671208,7.165773237568696,16.24938645298637,0.814613696438204
6.113596208,7.163840231119247,16.57544019992639,0.8174880643432946
6.123522208,7.045417415234746,16.597017646909816,0.7904634269062878
6.133447208,6.825462957324439,16.313417054684326,0.7327382398470574
6.143373208,6.521166864296082,15.729199263668166,0.6447660866419846
6.153298208,6.150828794064416,14.854056175163201,0.5282924467456687
6.163224208,5.732742167614765,13.702632417932865,0.38633470627017824
6.173150208,5.2841558383333,12.294311697442502,0.22310873729568442
6.183075208,4.820377850369891,10.652974408614083,0.043907773331064874
6.193001208,4.354073983420253,8.806727151676268,-0.14505927205457408
6.202926208,3.8947980554585637,6.78759946040532,-0.33686271077879576
6.212852208,3.448772953451495,4.6311995136646384,-0.5240738885151508
6.222777208,3.018922708207927,2.3763192349607856,-0.6990091807051969
6.232703208,2.605138088322134,0.06447972328170946,-0.85399279381708
6.242628208,2.204742462875201,-2.2605902016920894,-0.9816353635364409
6.252554208,1.8131122134418012,-4.55354712079157,-1.0751243833062725
6.262479208,1.4243976708044137,-6.76810018387863,-1.1285200856996058
6.272405208,1.032286918841857,-8.857752717272563,-1.137046826068737
6.282330208,0.6307557729209419,-10.776617041158772,-1.0973661646546489
6.292256208,0.2147521526168326,-12.480299555319798,-1.0078148715341164
6.302182208,-0.2192290456503555,-13.92685067471625,-0.86858981848997
6.312107208,-0.6727146037753402,-15.07777038949358,-0.6818624522245551
6.322033208,-1.1449881730015694,-15.899054884107441,-0.45180822610556465
6.331958208,-1.6330034725153315,-16.362263030834136,-0.18454083058787144
6.341884208,-2.131475431418045,-16.445574297577412,0.11205303557089544
6.351809208,-2.6331381552385578,-16.13480247901808,0.4285758098596972
6.361735208,-3.1291484971381194,-15.42432347368812,0.7544685343468533
6.371660208,-3.609605321315972,-14.317870803164773,1.0784314090110902
6.381586208,-4.064147701878461,-12.829150318254294,1.3888935401505957
6.391511208,-4.482590762903253,-10.98222605666574,1.6745059184259452
6.401437208,-4.855556098265638,-8.81163282500292,1.924629738952928
6.411362208,-5.17505499552526,-6.362177818754979,2.129792714549525
6.421288208,-5.434986872555969,-3.6884031655039946,2.282088672361673
6.431214208,-5.6315218532956415,-0.8536930741911147,2.3754996110879314
6.441139208,-5.763344576918434,2.070977444995973,2.406124050506176
6.451065208,-5.831745475200688,5.008641217758475,2.372301306433294
6.460990208,-5.840555147902061,7.878259256956514,2.2746287633416022
6.470916208,-5.795926517497909,10.59692221945035,2.1158776152988406
6.480841208,-5.705977850040394,13.082277178497948,1.9008198998727899
6.490767208,-5.580317279183053,15.25510928566535,1.635984089018493
6.500692208,-5.429475767882875,17.041995044835236,1.3293577159781496
6.510618208,-5.264279999705213,18.37793397399389,0.9900545694420443
6.520543208,-5.095199252597733,19.208859014653495,0.6279621431935405
6.530469208,-4.931700988385258,19.493923428819638,0.25338307318930225
6.540394208,-4.781649060247417,19.207463277196833,-0.1233174609131726
6.550320208,-4.650776492839907,18.34054009419221,-0.492047914934035
6.560245208,-4.5422619501668,16.90197823330922,-0.8433011030942701
6.570171208,-4.45643526236209,14.918825616953558,-1.16843186935331
6.580097208,-4.390632581019176,12.436185176323832,-1.4598955291395304
6.590022208,-4.339215746303652,9.516386754272073,-1.7114420742940584
6.599948208,-4.293763274393008,6.237495030813922,-1.918261882976789
6.609873208,-4.243432140787415,2.691177193076481,-2.0770790972741895
6.619799208,-4.175480508250915,-1.020016601453855,-2.186189322631955
6.629724458,-4.075932150627431,-4.785877882266935,-2.2454394188107183
6.639650458,-3.9303541302911857,-8.49216038678413,-2.256149329597175
6.649575458,-3.724710939842126,-12.02446343115192,-2.2209791324031567
6.659501458,-3.446251401971101,-15.272226220993929,-2.143748145482169
6.669426458,-3.0843796067289775,-18.13266850342522,-2.029215987863173
6.679352458,-2.6314585115350484,-20.514507699711736,-1.8828371974494624
6.689277458,-2.083495126401082,-22.341285857240347,-1.7105014450582214
6.699203458,-1.440660114857301,-23.554152244845532,-1.5182712532335785
6.709128458,-0.7076025666018323,-24.113969719460936,-1.312129107047723
6.719054458,0.10646754383369451,-24.002645007309113,-1.097746088631312
6.728979458,0.9879420196326398,-23.223623437102486,-0.8802843922396277
6.738905458,1.9192189891212634,-21.801534434257775,-0.6642457716230308
6.748830458,2.8793305818046777,-19.781020746773216,-0.4533765026078777
6.758756458,3.8447616794707486,-17.224826977001975,-0.2506362073065985
6.768681458,4.790417614793717,-14.211257576577667,-0.05823266137811364
6.778607458,5.690691988337428,-10.831139008926106,0.12228202354636526
6.788532458,6.52058201788953,-7.184435157242122,0.2898655191659121
6.798458458,7.256797449692635,-3.376670244988184,0.4438073278445497
6.808383458,7.878809645377769,0.48468907938449385,0.5835399968594231
6.818309458,8.369789881525017,4.293749900520303,0.7084614865204161
6.828234458,8.717390234608882,7.949479129606196,0.8177888417430699
6.838160458,8.914326770018992,11.35864961889322,0.910459651864893
6.848086458,8.95873306493071,14.43835775876313,0.9850929753343037
6.858011458,8.854262152904468,17.118047214140887,1.0400157404396617
6.867937458,8.60992649589741,19.34099735584577,1.0733541495068364
6.877862458,8.23967829880973,21.065258600991125,1.0831825252905911
6.887788458,7.7617460456841805,22.26403957523841,1.0677150457174138
6.897713458,7.197756942235953,22.925572197955898,1.025520095953198
6.907639458,6.571688055658201,23.052499997942206,0.955733868775862
6.917564458,5.908700286588099,22.66085173014313,0.8582504091564788
6.927490458,5.2339179084610326,21.77867609070585,0.7338697096359483
6.937415458,4.571221383391851,20.44442306231033,0.5843925413865215
6.947341458,3.94212175170892,18.70516185300016,0.4126581682767434
6.957266458,3.364780661294208,16.614723477450916,0.22252684815809445
6.967192458,2.8532311667225234,14.231847888660093,0.018812310482904437
6.977117458,2.4168414877557396,11.618402762590291,-0.19282942192099817
6.987043458,2.0600481054586703,8.837725916993492,-0.40604876421014596
6.996968458,1.7823672125540424,5.953128066587699,-0.6139838368952257
7.006894458,1.5786759645212032,3.0265786090430233,-0.8094704596083829
7.016819458,1.4397385361393542,0.11758512998157493,-0.9852776174185084
7.026745458,1.3529379417116423,-2.717732407898195,-1.1343644458984017
7.036670458,1.3031638992843817,-5.427379249717201,-1.2501527038315232
7.046596458,1.2738001811879478,-7.9640469746330345,-1.3268057311729005
7.056521458,1.2477518889110932,-10.285513520769427,-1.3595018638429333
7.066447458,1.2084536548985723,-12.354899935031606,-1.3446879493717865
7.076372458,1.1408035874963154,-14.140803714486704,-1.2802974395817823
7.086298458,1.0319744935791066,-15.617330783340456,-1.1659178214311252
7.096223458,0.8720630481007584,-16.764050636578318,-1.0028940816333847
7.106149458,0.6545484122662308,-17.56590156748512,-0.7943583963926975
7.116074458,0.37654348100690566,-18.013074229684722,-0.545180790818073
7.126000458,0.038833697578619604,-18.100900961939228,-0.2618404184731258
7.135925458,-0.3542903445237686,-17.829774624290977,0.047778182013289566
7.145851458,-0.7953898578260084,-17.205114150425537,0.374655251188443
7.155776458,-1.2743984368065022,-16.23738516482338,0.7089601137903239
7.165702458,-1.7792724788378176,-14.942173650182815,1.0404143716662075
7.175627458,-2.2967315874145724,-13.34029966332311,1.3586766743754983
7.185553458,-2.8130450403412817,-11.457947425920798,1.6537307739291982
7.195478458,-3.3148186327606095,-9.326778771411636,1.9162586289407681
7.205404458,-3.789736917777573,-6.983989925647326,2.137981232252256
7.215329458,-4.227219215540045,-4.472267770435177,2.311951424596321
7.225255458,-4.618953729281209,-1.8396015329762323,2.4327851563667426
7.235180458,-4.959282292562987,0.8610907670359198,2.496820462289395
7.245105458,-5.2454178188743175,3.5725551804934663,2.502197030491323
7.255031458,-5.47748643376573,6.234038697660008,2.4488542267762203
7.264956458,-5.658395858443493,8.78238290536562,2.3384519711835727
7.274882458,-5.793540618754628,11.153372878636885,2.1742257617976843
7.284807458,-5.890362891692604,13.28332344980929,1.960792166650845
7.294733458,-5.9577948741685605,15.110867815152027,1.7039227919332154
7.304658458,-6.00561397246445,16.578896790967484,1.4103034368981726
7.314584458,-6.043745593905559,17.63658211038708,1.0872922398721432
7.324509458,-6.081549937334499,18.241404734690903,0.742687256558935
7.334435458,-6.127129193701548,18.361099813056068,0.38451064309430116
7.344360458,-6.186690290000928,17.975424261180088,0.0208136641221144
7.354286458,-6.2639959877758695,17.077651580450187,-0.34049575077403904
7.364211458,-6.35993391828359,15.675702059205674,-0.6918031350945922
7.374137458,-6.472229007336579,13.79282521725985,-1.0259169658882967
7.384062458,-6.59531963835103,11.467765291738042,-1.336180155035689
7.393988458,-6.72041175838414,8.754359403517151,-1.6165667295500714
7.403913458,-6.835717964936017,5.720541166516696,-1.8617667457580738
7.413839458,-6.92688052456058,2.4467489573480434,-2.0672615532578194
7.423764458,-6.977568440632591,-0.9762334607601081,-2.2293899879998054
7.433690458,-6.970229342397328,-4.4499473523268644,-2.345404497318555
7.443615458,-6.886967432077485,-7.871356111995089,-2.413515205292734
7.453541458,-6.710509461910666,-11.136259549656307,-2.4329197626455503
7.463466458,-6.425212359493098,-14.142894497811445,-2.4038172309013364
7.473392458,-6.018059483204405,-16.795574439993825,-2.3274047117396646
7.483317458,-5.479588465443984,-19.008210462720704,-2.205855586147693
7.493242458,-4.8046930481157535,-20.707552722751064,-2.0422780980116313
7.503168458,-3.993244887071521,-21.835997162175122,-1.8406529377390157
7.513093458,-3.05048930090178,-22.35381765713874,-1.605748836413235
7.523019458,-1.9871811886728863,-22.24070976628542,-1.3430162068103912
7.532944458,-0.8194430426977302,-21.496568003834636,-1.0584606085323272
7.542870458,0.43165537897191697,-20.141461453742878,-0.7585000967672751
7.552795458,1.7407785978370527,-18.21481814304666,-0.44981287994376745
7.562721458,3.079235497344794,-15.773871738829268,-0.13918343676874417
7.572646458,4.416072910476538,-12.891460468096449,0.1666444430099642
7.582572458,5.71929886419324,-9.653295258846157,0.4611007737818683
7.592497458,6.95717608716223,-6.154831521928743,0.7379049111683009
7.602423458,8.099523670304237,-2.4978875321601857,0.9911636926451838
7.612348458,9.118964539167925,1.2128467397431717,1.2154558101755832
7.622273583,9.992058501894189,4.873271984129892,1.4059081245887448
7.632198583,10.70026506287209,8.383185418050111,1.558270031209285
7.642124583,11.23068696205326,11.649317198559636,1.6689908245614637
7.652049583,11.576554511002607,14.588002078905935,1.7353025886740212
7.661974583,11.737422218740242,17.1274105825608,1.7553078736860368
7.671900583,11.719062854860564,19.209284600950678,1.728067921032135
7.681825583,11.533059733875284,20.790143301651163,1.653684263725087
7.691751583,11.196115000547415,21.841946030453528,1.533364879350101
7.701676583,10.729108970384651,22.352219106394333,1.3694660393813414
7.711602583,10.155961761724145,22.323672709917055,1.1655024244400025
7.721527583,9.502362159905948,21.77335200574124,0.9261205033289546
7.731453583,8.79443860098722,20.731382449651203,0.6570330265294242
7.741378583,8.057452165860044,19.239381785603417,0.36491518492335967
7.751304583,7.314590552553687,17.34861946223213,0.0572651797613604
7.761229583,6.585934720343636,15.11800758936331,-0.2577663374617059
7.771154583,5.887656786342815,12.612006487515396,-0.5715721754113637
7.781080583,5.231490279665125,9.898523405037887,-0.8753034170343138
7.791005583,4.624493999893348,7.0468763262139404,-1.1600970861264617
7.800931583,4.0691103792493095,4.125886907617187,-1.417311947304634
7.810856583,3.563499968213165,1.2021578618822824,-1.638769146460409
7.820782583,3.1021167150864164,-1.6614194594732277,-1.8169949733693997
7.830707583,2.6764750414399123,-4.406892117481307,-1.9454624020450673
7.840633583,2.276049879965534,-6.982183913058545,-2.018826556240986
7.850558583,1.8892450851581886,-9.341734969350295,-2.0331473506736804
7.860484583,1.504364132017934,-11.44684774388253,-1.98609050210445
7.870409583,1.1105200093746168,-13.265761594378668,-1.8770959774794647
7.880334583,0.6984287275743382,-14.773495547011045,-1.707501189566335
7.890260583,0.26104228413208785,-15.951514552566264,-1.4806057189087047
7.900185583,-0.20600914069401166,-16.78728520800575,-1.201665672482631
7.910111583,-0.7041812512033386,-17.273790326085965,-0.8778088917664687
7.920036583,-1.2319872187882457,-17.40906717537784,-0.5178665197152322
7.929962583,-1.7851650238321963,-17.195822653425967,-0.13212140342067547
7.939887583,-2.357017505963666,-16.641162071133568,0.26802085951019894
7.949813583,-2.9388929616741484,-15.756448985289191,0.6704269875232594
7.959738583,-3.520767634630925,-14.557293976856359,1.0626807912690701
7.969664583,-4.091887813910513,-13.063652474618008,1.4325568852618789
7.979589583,-4.641428481153189,-11.299997158335087,1.7684995243198944
7.989514583,-5.15912730068727,-9.295519990946342,2.0600814906849503
7.999440583,-5.63585684886896,-7.084312757121425,2.298418682771069
8.009365583,-6.064103850871565,-4.705472868204397,2.476518639878684
8.019291583,-6.438331301654764,-2.203082614087729,2.589545145594702
8.029216583,-6.755207197371867,0.37398552847775524,2.6349855644076876
8.039142583,-7.013691795782416,2.9724779057284945,2.6127122670912364
8.049067583,-7.214983465927767,5.53541410479032,2.524934665604425
8.058992583,-7.36233079124567,8.003006485665896,2.376044737516758
8.068918583,-7.460725241432375,10.313850979155625,2.1723666482722193
8.078843583,-7.516494330715041,12.4063794515086,1.9218288375702073
8.088769583,-7.536819820342606,14.220546149217729,1.6335823885710175
8.098694583,-7.529209065372683,15.699702193912595,1.3175911253844248
8.108620583,-7.500949623062403,16.792594454429153,0.9842170195805271
8.118545583,-7.45857739504492,17.455409882582746,0.6438206504004383
8.128471583,-7.407386950209819,17.65377463124426,0.30639215705451217
8.138396583,-7.351009722627656,17.364609734519973,-0.018775807347833493
8.148321583,-7.291082057880172,16.57774242139308,-0.32336498352360404
8.158247583,-7.227021031656887,15.297174731262903,-0.6002531388835599
8.168172583,-7.155921796484742,13.541919293276399,-0.8436780868427005
8.178098583,-7.072585901181762,11.346325935501854,-1.0493442795135381
8.188023583,-6.969685400418517,8.759841863339407,-1.2144741262406369
8.197949583,-6.8380624270809385,5.846171772281923,-1.3378073022559114
8.207874583,-6.667158090067492,2.6818313780761156,-1.4195515191023431
8.217799583,-6.445558049191467,-0.6458828868968127,-1.4612878557544802
8.227725583,-6.16163506462419,-4.041455365790131,-1.4658334206495907
8.237650583,-5.804261631042136,-7.4041622207537205,-1.437064473691086
8.247576583,-5.363559090713742,-10.631423765477978,-1.379704500724947
8.257501583,-4.831644009245839,-13.622366988532974,-1.2990839060503585
8.267427583,-4.2033286432856185,-16.28144955180795,-1.2008803716374634
8.277352583,-3.4767305697573216,-18.52198556164517,-1.090850852728182
8.287277583,-2.6537476535670983,-20.269410407658143,-0.9745672488565568
8.297203583,-1.7403592350885706,-21.46412820720119,-0.8571680415805933
8.307128583,-0.7467231197533177,-22.063801843747292,-0.7431378977327696
8.317054583,0.3129496910976628,-22.04497238323449,-0.6361265898724001
8.326979583,1.4207457642450405,-21.403930491197034,-0.5388175630036991
8.336905583,2.555613219115735,-20.15680436227068,-0.4528549353117649
8.346830583,3.69411236086922,-18.338872353077075,-0.37883545333508634
8.356756583,4.8113148080857355,-16.003149475722676,-0.31636863787764885
8.366681583,5.8818048570051396,-13.21833156859779,-0.26420381869114473
8.376606583,6.88073219409623,-10.066207316391685,-0.22041711905739506
8.386532583,7.784863416315678,-6.638665889434269,-0.18264547657417693
8.396457583,8.57358054057359,-3.034437366927382,-0.1483496364741037
8.406383583,9.229777341439517,0.6442947166332482,-0.11508479718894929
8.416308583,9.740608739510556,4.295273341414712,-0.08075677468489763
8.426233583,10.098054521858602,7.819414238474871,-0.043843099984889895
8.436159583,10.299266414757367,11.123805424514165,-0.0035618490900037967
8.446084583,10.346676910074018,14.12436361011649,0.04002440534747222
8.456010583,10.247859116455043,16.748069971119026,0.0859768166243672
8.465935583,10.01513896303591,18.934728195118787,0.1325222161955171
8.475861583,9.664973893006744,20.638208861753306,0.17716446417026474
8.485786583,9.217125188698454,21.827165458312024,0.21685528014748018
8.495711583,8.693663541631967,22.485228194721234,0.24820999049773879
8.505637583,8.117858513483238,22.610701818345497,0.2677506418265191
8.515562583,7.513011174853897,22.215812273064707,0.2721582700203687
8.525488583,6.901294635280775,21.325563496379818,0.25851810531560954
8.535413583,6.302668736705364,19.976278773609167,0.2245455275919234
8.545339583,5.733932378779572,18.21390948787308,0.16878494028472515
8.555264583,5.207969565150493,16.09219668826861,0.09077658275109214
8.565189583,4.7332335686432065,13.670767531572421,-0.008812971379669462
8.575115583,4.313498429150916,11.013240558782403,-0.12810164594903184
8.585040583,3.947889600580954,8.185402975978851,-0.2639503643325221
8.594966583,3.6311874593306297,5.25351149517206,-0.4119767649828062
8.604891583,3.354380054479713,2.282756960776015,-0.5666321230080893
8.614816583,3.105426218024096,-0.6640777084084255,-0.7213483939310794
8.624743208,2.870178005225931,-3.527746861548679,-0.8687590257737335
8.634668208,2.6334030893121674,-6.253449128376719,-1.0009915914589211
8.644594208,2.3798434761239418,-8.791512199110068,-1.11002305808672
8.654519208,2.0952467186145007,-11.097865335266341,-1.188081014133664
8.664444208,1.767309540194273,-13.134319612132153,-1.2280679717213772
8.674370208,1.3864811248278481,-14.868685648034692,-1.2239820888586856
8.684295208,0.9465837213529621,-16.274766958788696,-1.171306742904108
8.694221208,0.44522070338752395,-17.332272530050084,-1.067343028345055
8.704146208,-0.11604428704224723,-18.026693269860612,-0.911462690001901
8.714071208,-0.7317399847239637,-18.349183016097818,-0.7052635376196001
8.723997208,-1.3927619997861151,-18.296476152818666,-0.4526147277072051
8.733922208,-2.0868476222882135,-17.870861917814796,-0.15958542058175065
8.743848208,-2.799219398592733,-17.08022179589812,0.16574289375560305
8.753773208,-3.5133579593206004,-15.93812256349661,0.5135730403859077
8.763699208,-4.211858873858662,-14.463944886589108,0.8727836299437032
8.773624208,-4.877325047795665,-12.683016861339516,1.2313953105399424
8.783549208,-5.493245465521915,-10.626714223856942,1.577087275332593
8.793475208,-6.0448129875276635,-8.332484586027793,1.897736790568771
8.803400208,-6.519638436409827,-5.843752141965192,2.181953624900186
8.813326208,-6.908325101754565,-3.2096616977150108,2.419581891499277
8.823251208,-7.204876493116824,-0.4846262470972111,2.6021434259009357
8.833176208,-7.406919931409975,2.2723497922889297,2.723199057932187
8.843102208,-7.5157387163972516,4.998589617274121,2.7786072694449064
8.853027208,-7.536115582810865,7.628911747713544,2.766664746702294
