Time (s),Acceleration x (m/s^2),Acceleration y (m/s^2),Acceleration z (m/s^2)
9.003896354,0.18031975673239742,-2.1870505490160825,3.3582134830245165
9.008673333,0.33774256743771514,-2.9804309645132534,3.676091177924971
9.013436979,0.4959640968884721,-3.7633530536413673,3.9862674935093088
9.018227239,0.6550731454002785,-4.532757803232022,4.287575525170953
9.023004218,0.8151372211292254,-5.2856507265673915,4.578874110020864
9.027767864,0.976198024245681,-6.0191204480094145,4.859054635638484
9.032558177,1.1382673414992626,-6.730356869311088,5.12704779001327
9.037335104,1.3013234306725419,-7.416668790181505,5.3818302014488095
9.042098802,1.4653079656234809,-8.075500855243739,5.622430914927024
9.046889062,1.6301236029959725,-8.704449699485309,5.847937650118693
9.051666041,1.7956322213736968,-9.301279164779755,6.057502786188434
9.056429687,1.9616538727504964,-9.863934461264932,6.250349019852545
9.061219947,2.127966474781084,-10.390555149590003,6.425774645660847
9.065996927,2.2943062604578257,-10.879486823629705,6.58315841090016
9.070760572,2.460368989674283,-11.329291378558256,6.721963901544196
9.075550885,2.625811914509987,-11.738755756483162,6.841743420065336
9.080327812,2.7902564768772886,-12.106899071375867,6.9421413205427465
9.08509151,2.9532917034170563,-12.432978026876253,7.022896771276951
9.08988177,3.1144782485176097,-12.716490554617543,7.0838459199902895
9.09465875,3.2733530226650704,-12.957177616848666,7.12492344153833
9.099422395,3.429434330781547,-13.15502313513435,7.146163452657843
9.104212656,3.5822274345251843,-13.310252026610089,7.147699782323452
9.108989635,3.73123044431634,-13.423326350431154,7.129765589492938
9.113753281,3.8759404414823977,-13.49493958932493,7.0926923222977045
9.118543593,4.015859728477482,-13.526009114016718,7.03690801435233
9.12332052,4.150502105479066,-13.517666901079682,6.962934915537206
9.128084218,4.279399074401117,-13.471248596674059,6.871386457355621
9.132874479,4.402105875886721,-13.388281038903003,6.762963557616615
9.137651458,4.518207270459841,-13.270468369511708,6.638450275980011
9.142415104,4.627322981202612,-13.119676881063219,6.498708840399455
9.147205364,4.729112721908499,-12.937918758451879,6.344674073938329
9.151982343,4.823280741755416,-12.72733488369694,6.177347261009912
9.156745989,4.909579825325985,-12.49017688046107,5.9977895011544
9.161536302,4.987814695353737,-12.22878857974044,5.807114606580221
9.166313229,5.057844774837458,-11.94558709076984,5.606481606659662
9.171076927,5.11958627498955,-11.643043661488178,5.397086928324009
9.175867187,5.173013585677335,-11.323664511044935,5.180156325842806
9.180644166,5.218159955385862,-10.989971812946665,4.956936636780283
9.185407812,5.255117458086526,-10.644485001712582,4.7286874429832295
9.190198072,5.284036254536906,-10.289702568495875,4.496672716262187
9.194975052,5.305123165247556,-9.928084502179269,4.262152527971891
9.199738697,5.318639581419097,-9.562035522090246,4.026374899951887
9.20452901,5.324898748402874,-9.193889236809568,3.7905678712277395
9.209305989,5.324262463551282,-8.825893350684355,3.555931850500154
9.214069635,5.317137236627398,-8.460196025761103,3.323632318814106
9.218859895,5.303969966201289,-8.098833492128948,3.0947929399929968
9.223636875,5.285243189666322,-7.743718984341238,2.8704891285623706
9.22840052,5.261469967670537,-7.396633065897214,2.6517421161363637
9.233190833,5.233188465872122,-7.059215387939057,2.4395135478408214
9.23796776,5.200956297989168,-6.732957912571405,2.2347006306354924
9.242744739,5.165344694156915,-6.419199615754505,2.0381318457670456
9.247521718,5.12693255772783,-6.119122669754086,1.850563228429669
9.252298697,5.086300471988233,-5.833750090809267,1.6726752093900135
9.257062343,5.0440247159685265,-5.563944824117789,1.5050700061736886
9.261852604,5.00067134577116,-5.310410225516132,1.3482695457365348
9.266629583,4.956790394897456,-5.073691887412275,1.2027138967049147
9.271393229,4.912910244290905,-4.854180745653639,1.0687601875782264
9.276183541,4.8695322105999646,-4.652117394103825,0.9466819878453243
9.280960468,4.827125399664718,-4.467597524775602,0.8366691315069891
9.285724166,4.7861218712686915,-4.300578403455744,0.7388279664322598
9.290514427,4.7469121603155,-4.150886283908009,0.653182017649067
9.295291406,4.709841198300777,-4.018224658002125,0.5796730575800761
9.300068333,4.675204676925471,-3.902183234523045,0.5181625811030097
9.304845312,4.64324589281084,-3.802247535985928,0.46843368799624857
9.309622291,4.614153108550037,-3.717809000537778,0.4301933796838329
9.314385937,4.588057460876557,-3.648175474999723,0.40307528095848566
9.31917625,4.565031441694818,-3.592581985345397,0.3866428000582242
9.323953177,4.54508797223121,-3.5502016724747425,0.380392741353819
9.328716875,4.528180084675033,-3.520156784051023,0.38375938302386514
9.333507135,4.514201219341611,-3.501529617369164,0.3961190265727386
9.338284114,4.502986138512569,-3.4933733135578273,0.41679501551065695
9.34304776,4.494312450657218,-3.494722409621519,0.44506320748663175
9.34783802,4.487902730833488,-3.5046030615670136,0.480157869094618
9.352615,4.483427214998786,-3.5220428587895736,0.5212779474113247
9.357378645,4.480507038131169,-3.5460801567433466,0.5675936589050312
9.362168958,4.478717978880086,-3.5757728615185607,0.6182533259599187
9.366945937,4.477594667266174,-3.610206606237431,0.6723903844892701
9.371709583,4.476635206928147,-3.6485022651963277,0.7291304829618522
9.376499843,4.475306159611498,-3.6898227575365503,0.7875985932141767
9.381276822,4.473047836916343,-3.733379098095381,0.8469260560235442
9.386040468,4.46927984261451,-3.778435659177925,0.9062574888869347
9.390830781,4.46340680795994,-3.824314613481774,0.9647574891684605
9.395607708,4.454824262243925,-3.8703995354112894,1.0216170722156945
9.400371406,4.442924581321579,-3.916138145546584,1.0760597907466691
9.405161666,4.427102957925967,-3.96104419099224,1.1273474883765173
9.409938645,4.406763339274147,-4.0046984625433515,1.1747856462745307
9.414715625,4.381324279713038,-4.046748957831087,1.2177282874472517
9.419492552,4.350224658851444,-4.086910207584637,1.2555824080226972
9.424269531,4.312929218628611,-4.124961789642331,1.2878119092897016
9.42904651,4.268933875935608,-4.1607460622202055,1.3139410083229657
9.433823489,4.217770770646987,-4.1941651541685605,1.3335571090189362
9.438600468,4.159013012207622,-4.225177255567156,1.346313119487192
9.443377395,4.0922790912456275,-4.253792257111543,1.3519292061499915
9.448154375,4.017236926034321,-4.280066791407906,1.3501939796902556
9.452931354,3.933607517002765,-4.304098733596167,1.3409651131577274
9.457695,3.841168185924069,-4.326021222736719,1.324169398015225
9.462485312,3.739755379921896,-4.3459962691921366,1.299802249563089
9.467262239,3.629267023982313,-4.364208016841381,1.2679266789167287
9.472025937,3.509664409082085,-4.380855732356035,1.228671754456366
9.476816197,3.380973606120234,-4.3961465968769184,1.182230581332888
9.481593177,3.2432863983535185,-4.4102883781652915,1.1288578330479486
9.486356822,3.0967607268331236,-4.4234820635793675,1.0688668741047282
9.491147083,2.941620644337508,-4.435914535978334,1.002626516967017
9.495924062,2.778155773500781,-4.4477513758420235,0.9305574597520546
9.500687708,2.6067202643525453,-4.4591298734887825,0.8531284528943724
9.50547802,2.427731245522284,-4.470152335243268,0.7708522431803034
9.510255,2.2416667622550195,-4.4808797666911095,0.6842813419262695
9.515018645,2.0490631936464156,-4.491326014682831,0.5940036607584865
9.519808906,1.8505121418047723,-4.501452447451803,0.5006380538589636
9.524585885,1.6466567876546818,-4.511163249067316,0.40482980033917937
9.529349531,1.438187712266846,-4.5203014004763755,0.3072460553039349
9.534139843,1.2258381890667185,-4.528645414637855,0.20857129370823968
9.538916822,1.01037896090718,-4.5359068877431525,0.10950276754186936
9.543680468,0.7926125264707011,-4.541728922235642,0.010745994202256944
9.548470729,0.573366972321521,-4.545685470253828,-0.08698970805868682
9.553247708,0.35348939949961233,-4.547281638202511,-0.18299562338550218
9.558011354,0.13383900598565832,-4.545954984389228,-0.2765679678928487
9.562801666,-0.08472010226755283,-4.541077832044531,-0.36701213571459756
9.567578593,-0.3013262895513938,-4.531960609569834,-0.453646855111619
9.572342291,-0.5151278685159998,-4.517856218525844,-0.535808252412985
9.577132552,-0.7252905840385153,-4.497965417704988,-0.6128538260392397
9.581909531,-0.9310050060447185,-4.471443198673465,-0.6841663369371718
9.586673177,-1.1314937336905884,-4.437406114522293,-0.7491576247302795
9.591463437,-1.3260183142113198,-4.39494050938977,-0.8072723601518172
9.596240416,-1.5138857823064598,-4.343111581838288,-0.857991743509186
9.601004062,-1.6944547301446071,-4.280973200715003,-0.9008371559837212
9.605794322,-1.867140823804065,-4.207578378157124,-0.9353737657618958
9.610571302,-2.031421688884352,-4.121990291493507,-0.9612140847878389
9.615335,-2.1868410956983526,-4.023293734552223,-0.9780214648571234
9.62012526,-2.333012382569548,-3.9106068698217142,-0.9855135143346165
9.624902239,-2.469621064254608,-3.7830931463581394,-0.9834654093847945
9.629665885,-2.5964265815580934,-3.639973244413935,-0.9717130666041147
9.634456197,-2.7132631580713626,-3.4805369064458964,-0.950156137716652
9.639233177,-2.820039740916666,-3.304154515256393,-0.9187607819863487
9.643996822,-2.9167390146016365,-3.1102882832075234,-0.8775621686991468
9.648787083,-3.003415490626576,-2.8985029213375544,-0.8266666608559956
9.653564062,-3.080192690161154,-2.668475663433323,-0.7662536322007254
9.658327708,-3.1472594525350632,-2.4200055273641823,-0.6965768726820172
9.66311802,-3.2048654179301517,-2.153021704002167,-0.6179655420183476
9.667894947,-3.2533157478880868,-1.8675909726088125,-0.53082463673914
9.672658645,-3.2929651614223054,-1.5639240504877805,-0.435634942432514
9.677448906,-3.3242113771360056,-1.2423807938956157,-0.33295244938083574
9.682225885,-3.3474880625393784,-0.9034741766300167,-0.2234072155997912
9.686989531,-3.3632574007382665,-0.5478729823077132,-0.10770166572080704
9.691779791,-3.3720023919634774,-0.1764031559905924,0.013391683411905733
9.69655677,-3.3742190130452667,0.20995222956551554,0.13903307912016596
9.701320468,-3.37040836170402,0.6100544281559412,0.268318980720601
9.706110729,-3.3610689140881145,1.0226119202306914,0.4002861088569163
9.710887708,-3.3466890230537247,1.4461847741106517,0.5339161051201617
9.715651354,-3.3277397810948206,1.879190472917196,0.6681408063966598
9.720441614,-3.3046683655612017,2.319911200519674,0.8018481306403515
9.725218593,-3.2778919749128566,2.766502567832247,0.93388856023652
9.729982291,-3.247792453443004,3.217003748135322,1.0630821970132085
9.734772552,-3.2147116885327853,3.6693489767794185,1.1882263506730633
9.739549531,-3.178947849610808,4.121380356706093,1.308103611241517
9.744313177,-3.1407525221360055,4.570861896761804,1.4214903469350602
9.749103437,-3.1003287735259475,5.015494694877651,1.5271655619968456
9.753880416,-3.0578301712782228,5.452933163010448,1.6239200444326416
9.758644062,-3.0133607567964953,5.880802175592582,1.7105657308390463
9.763434375,-2.966975961948163,6.296715008557044,1.7859452141201386
9.768211354,-2.918684439597603,6.698291922294249,1.8489413192328747
9.772975,-2.8684507647515907,7.083179229626159,1.8984866716229185
9.77776526,-2.816198949852306,7.449068679390186,1.933573182335467
9.782542239,-2.7618167062971817,7.793716977698095,1.9532613727967412
9.787305885,-2.705160374490219,8.114965262453318,1.9566894610707477
9.792096197,-2.646060436648614,8.410758342301119,1.943082130230165
9.796873177,-2.584327520167358,8.679163508846695,1.91175889859517
9.801636822,-2.5197587944587423,8.918388730672811,1.8621420112245988
9.806427083,-2.4521446606497967,9.126800039370291,1.793763772383151
9.811204062,-2.381275631188791,9.302937921425789,1.706273239904574
9.815967708,-2.3069492952408606,9.445532535394676,1.5994422045337089
9.82075802,-2.2289772658086298,9.553517581360905,1.4731703805298209
9.825535,-2.147192005902502,9.626042659297841,1.327489738070857
9.830298645,-2.061453433880347,9.662483964619101,1.1625679132831752
9.835088906,-1.9716552122761313,9.66245318292906,0.9787106379601083
9.839865885,-1.8777306299509229,9.625804461679627,0.7763631381198306
9.844629531,-1.779657994059149,9.552639353982281,0.5561104583636715
9.849419843,-1.6774654559222573,9.443309649011537,0.3186766773973148
9.854196822,-1.5712352032380776,9.298418024001121,0.06492298893675524
9.858960468,-1.4611069599305764,9.118816474455988,-0.20415536858184394
9.863750729,-1.3472807441565458,8.905602501526785,-0.4874333406261435
9.868527708,-1.2300188443355415,8.660113058163526,-0.7836614410229567
9.873304687,-1.109646982406362,8.383916278370242,-1.0914722799043985
9.878081666,-0.9865546427505042,8.078801036383672,-1.409388212728064
9.882858593,-0.8611945543246582,7.746764404734313,-1.7358300775813054
9.887635572,-0.7340813225132028,7.389997101807903,-2.069126977259665
9.892412552,-0.6057892160775091,7.010867040621817,-2.407527051527617
9.897189531,-0.47694912337504053,6.61190111097427,-2.7492091735711077
9.90196651,-0.3482447007609493,6.195765346812153,-3.0922954930532396
9.906743489,-0.220407744748603,5.765243649474522,-3.434864736558852
9.911520416,-0.0942128280409511,5.3232152552602745,-3.774966164743939
9.916284114,0.029528752110516348,4.872631152380159,-4.110634074348319
9.921074375,0.14997565663887,4.416489667613064,-4.439902722511672
9.925851354,0.2662637539919859,3.9578114567123297,-4.760821540676332
9.930615,0.3775138638617809,3.499614144609489,-5.0714704959037045
9.935405312,0.48283991571229073,3.0448868715562925,-5.369975448827798
9.940182239,0.5813574355772605,2.5965650093724144,-5.654523349873457
9.944945937,0.6721922682992142,2.157505317789481,-5.923377108928543
9.949736197,0.7544894367767251,1.7304618143594015,-6.1748899685426055
9.954513177,0.8274220348759468,1.3180626323424023,-6.407519207165409
9.959276822,0.8902000464982691,0.9227881391608361,-6.61983899734719
9.964067135,0.9420789800487948,0.546950583068498,-6.810552244891941
9.968844062,0.9823682054794486,0.19267552718315448,-6.978501239721786
9.97360776,1.0104388804915863,-0.138114682708136,-7.1226769590204
9.97839802,1.0257313538258863,-0.44371518815868616,-7.242226879551769
9.983175,1.027761937800529,-0.7226504223391927,-7.336461180039509
9.987938645,1.0161289513126577,-0.9736832791434297,-7.404857246088057
9.992728958,0.990517950874236,-1.195821523717548,-7.447062427199501
9.997505937,0.9507060915694371,-1.3883213801890888,-7.462895033968572
10.00226958,0.8965655882728955,-1.5506883021038618,-7.452343599407438
10.00705984,0.82806627299514,-1.6826750042949898,-7.415564459340671
10.01183682,0.7452772618767174,-1.7842769025959664,-7.352877732880469
10.01660047,0.6483677556781386,-1.85572516299498,-7.2647618060435235
10.02139078,0.537607004283756,-1.8974776017731998,-7.151846440291545
10.02616776,0.41336347141778035,-1.9102077036001686,-7.014904643351874
10.03093141,0.27610324089040333,-1.8947920375307592,-6.854843452008857
10.03572167,0.1263877096694942,-1.852296353294944,-6.672693785570606
10.04049865,-0.035129384555988075,-1.7839606337901024,-6.469599534483029
10.04526229,-0.2077055530030175,-1.6911833658397446,-6.246806051229595
10.0500526,-0.39051371530217555,-1.5755052717052522,-6.005648210234906
10.05482958,-0.582646884149104,-1.4385927200645103,-5.747538199781162
10.05959323,-0.7831233343280407,-1.2822210085097199,-5.473953201716447
10.06438349,-0.9908922203473417,-1.1082576811865426,-5.186423104020995
10.06916047,-1.2048396124682694,-0.9186460160515801,-4.886518377555673
10.07392411,-1.4237949263895775,-0.7153887874010723,-4.575838232318179
10.07871443,-1.6465377267139525,-0.5005323817777375,-4.255999151177528
10.08349135,-1.8718048881049059,-0.27615131988744734,-3.928623881242767
10.08825505,-2.0982981003767627,-0.04433321437514555,-3.595330945575439
10.09304531,-2.324691704340425,0.19283582624344822,-3.2577247215948493
10.09782229,-2.549640843817323,0.4332853529600981,-2.917386117845077
10.10258599,-2.7717899157453183,0.6749743077244804,-2.575863868276512
10.10737625,-2.9897812948630977,0.9159043537171596,-2.2346664532009233
10.11215323,-3.2022643023668187,1.1541328268871682,-1.8952546487728745
10.11691688,-3.4079043794462556,1.3877853236253672,-1.5590347021377855
10.12170719,-3.6053924168172107,1.6150679240330663,-1.2273521269908425
10.12648411,-3.7934541804139057,1.8342790273431158,-0.9014861140645167
10.13124781,-3.9708597620060115,2.0438207474894177,-0.5826445532160709
10.13603807,-4.136432973074698,2.2422097860962573,-0.27195966837084373
10.14081505,-4.289060592187238,2.428087671817326,0.02951572761259583
10.1455787,-4.427701370805174,2.600230233245774,0.32081134675242995
10.15036901,-4.551394699558819,2.7575561601890306,0.6010418969152043
10.15514594,-4.659268836042464,2.8991345055640014,0.8694089035536862
10.15990964,-4.750548595967595,3.0241909865909817,1.1252018850253236
10.1646999,-4.824562412026118,3.1321129577021853,1.3677988953536664
10.16947688,-4.88074866893983,3.2224529468221736,1.5966664589843762
10.17424052,-4.918661228744527,3.2949306696361007,1.8113589308577196
10.17903083,-4.937974067323807,3.349433461441348,2.0115173211648543
10.18380781,-4.938484951627959,3.386015091711022,2.196867627363545
10.18857146,-4.920118096935722,3.404892951534638,2.3672187168201817
10.19336172,-4.8829257548582214,3.40644362809903,2.522459802525105
10.1981387,-4.827088695268762,3.391196903191392,2.6625575524492504
10.20290234,-4.752915558517817,3.359828234394182,2.7875528709323434
10.20769266,-4.660841067652156,3.3131497982419598,2.897557388530398
10.21246964,-4.551423103486136,3.252100194056764,2.992749695318586
10.21723328,-4.425338658010596,3.177732925273391,3.073371351816134
10.22202354,-4.283378693627755,3.091203791526547,3.139722711335722
10.22680052,-4.126441947003657,2.993757339304881,3.1921585874291334
10.23156417,-3.955527726947516,2.8867125313218365,3.2310837999893214
10.23635448,-3.7717277657547656,2.771447804683868,3.256948633343669
10.24113146,-3.5762171930192457,2.6493856952530983,3.2702442392957
10.2458951,-3.3702447101271455,2.5219772101450753,3.2714980175662007
10.25068536,-3.1551220525107997,2.390686131995172,3.2612690054772413
10.25546234,-2.9322128352087624,2.256973437514536,3.240143308006005
10.26022604,-2.7029208852351934,2.122282009109835,3.208729598462598
10.2650163,-2.468678171535596,1.9880218122082158,3.1676547189410456
10.26979328,-2.230932449669077,1.8555557026694256,3.11755940825092
10.27455693,-1.9911347435491509,1.7261860185067197,3.059094183124726
10.27934724,-1.7507267903563808,1.6011420982396642,2.9929153959681805
10.28412417,-1.5111285769374083,1.4815688546631334,2.919681489167188
10.28888786,-1.2737260965396773,1.368516517723529,2.8400494619935164
10.29367813,-1.0398594535715435,1.2629316436864637,2.754671561677316
10.29845505,-0.8108114412306665,1.1656494700688562,2.6641922056974443
10.30321875,-0.5877967123684067,1.0773876771417072,2.5692451383879273
10.30800906,-0.3719516580006372,0.9987415974742568,2.4704508221171406
10.31278599,-0.16432510063610212,0.9301808953306225,2.3684140618393776
10.31754969,0.03413009879510094,0.8720477181388031,2.2637218616878196
10.32233995,0.22256443119228841,0.8245563031209076,2.1569415131872853
10.32711693,0.40023804836071186,0.7877940038643746,2.0486189162157005
10.33188057,0.5665259248306505,0.7617236844779988,1.9392771355526432
10.33667088,0.720921819953052,0.7461874133723604,1.8294151971889105
10.34144786,0.8630410025231934,0.7409113749463465,1.7195071290695565
10.34621151,0.9926217156191999,0.745511905721862,1.6100012503246686
10.35100182,1.1095253750767362,0.759502551728162,1.5013197112189298
10.35577875,1.2137355106745842,0.7823020360285192,1.3938582830892539
10.3605424,1.3053554743561084,0.8132430189766476,1.2879863936562868
10.36533271,1.3846049543831456,0.8515815288724398,1.1840473986265287
10.37010969,1.4518153479726288,0.8965069370059757,1.0823590757991972
10.37487333,1.507424057506189,0.9471523485816914,0.983214323227354
10.37966364,1.5519677866934547,1.0026052797390486,0.8868820385349268
