Time (s),Acceleration x (m/s^2),Acceleration y (m/s^2),Acceleration z (m/s^2)
4.000341842,-4.406413912323278e+21,3.446432914490009e+19,4.3624498968480816e+20
4.002341842,-4.4005631745817e+21,3.390477045025492e+19,4.335784857128917e+20
4.004341842,-4.394631283347307e+21,3.3346963078081315e+19,4.3091514592308704e+20
4.006341808,-4.3886187040766857e+21,3.2790912130848784e+19,4.2825501927249124e+20
4.008341741,-4.382525899178439e+21,3.2236622640989503e+19,4.255981545106797e+20
4.010341707,-4.37635332808758e+21,3.168409957097295e+19,4.229446001768577e+20
4.012341673,-4.370101447342699e+21,3.1133347813403754e+19,4.2029440459699546e+20
4.014341639,-4.363770710665789e+21,3.0584372191143035e+19,4.17647615880951e+20
4.016341605,-4.357361569044619e+21,3.00371774574535e+19,4.150042819195846e+20
4.018341571,-4.350874470817542e+21,2.949176829616839e+19,4.123644503818691e+20
4.020341537,-4.3443098617606266e+21,2.894814932188437e+19,4.0972816871200286e+20
4.022341537,-4.3376681851769806e+21,2.8406325080177836e+19,4.070954841265338e+20
4.02434157,-4.330949881988156e+21,2.786630004784441e+19,4.0446644361149913e+20
4.026341603,-4.324155390827524e+21,2.732807863316126e+19,4.018410939195819e+20
4.028341636,-4.3172851481355097e+21,2.6791665176171676e+19,3.992194815672844e+20
4.030341669,-4.310339588256602e+21,2.625706394899071e+19,3.966016528321206e+20
4.032341702,-4.303319143538055e+21,2.5724279156130808e+19,3.93987653749829e+20
4.034341735,-4.2962242444301655e+21,2.5193314934846325e+19,3.913775301116098e+20
4.036341768,-4.289055319588004e+21,2.4664175355496006e+19,3.887713274613895e+20
4.038340368,-4.28181279597448e+21,2.4136864421922537e+19,3.861690910931173e+20
4.040340334,-4.2744970989646507e+21,2.3611386071848452e+19,3.835708660480984e+20
4.0423403,-4.2671086524511866e+21,2.3087744177287725e+19,3.809766971123706e+20
4.04434,-4.2596478789508703e+21,2.2565942544972448e+19,3.7838662881412645e+20
4.046339966,-4.252115199712035e+21,2.204598491679408e+19,3.7580070542118014e+20
4.048339932,-4.244511034822839e+21,2.1527874970258866e+19,3.7321897093847895e+20
4.050339898,-4.2368358033202956e+21,2.10116163189568e+19,3.706414691056558e+20
4.052339864,-4.229089923299929e+21,2.0497212513043775e+19,3.6806824339462475e+20
4.054339564,-4.2212738120259406e+21,1.9984667039736594e+19,3.6549933700722354e+20
4.05633813,-4.2133878860417535e+21,1.947398332382072e+19,3.629347928729012e+20
4.058338163,-4.205432561280825e+21,1.8965164728170693e+19,3.6037465364645334e+20
4.060338196,-4.197408253177613e+21,1.845821455428308e+19,3.5781896170580895e+20
4.062338229,-4.1893153767785633e+21,1.795313604282178e+19,3.552677591498789e+20
4.064338262,-4.181154346852984e+21,1.7449932374175498e+19,3.527210877964706e+20
4.066338295,-4.1729255780036683e+21,1.694860666902723e+19,3.501789891802746e+20
4.068337461,-4.164629484777161e+21,1.6449161988935434e+19,3.476415045509212e+20
4.070337027,-4.15626648177355e+21,1.5951601336926863e+19,3.4510867487111145e+20
4.07233636,-4.147836983755676e+21,1.5455927658100883e+19,3.4258054081482326e+20
4.07433636,-4.139341405757607e+21,1.4962143840245137e+19,3.4005714276559356e+20
4.07633636,-4.1307801631922177e+21,1.4470252714462396e+19,3.3753852081487846e+20
4.07833636,-4.1221536719577033e+21,1.3980257055808274e+19,3.350247147604945e+20
4.08033636,-4.113462348542915e+21,1.3492159583939494e+19,3.325157641051439e+20
4.08233636,-4.104706610131414e+21,1.300596296377249e+19,3.3001170805502614e+20
4.084336326,-4.095886874704154e+21,1.252166980615191e+19,3.275125855185378e+20
4.086335959,-4.087003561140706e+21,1.2039282668528566e+19,3.250184351050608e+20
4.088335925,-4.078057089318938e+21,1.155880405564647e+19,3.225292951238371e+20
4.090335891,-4.0690478802130656e+21,1.1080236420238606e+19,3.200452035829275e+20
4.092335857,-4.059976355989978e+21,1.0603582163731218e+19,3.175661981882568e+20
4.094335823,-4.0508429401037797e+21,1.0128843636956381e+19,3.150923163427432e+20
4.096335789,-4.0416480573884685e+21,9.656023140872536e+18,3.126235951455142e+20
4.098336222,-4.032392134148674e+21,9.185122927292613e+18,3.1016007139120697e+20
4.100336222,-4.0230755982483873e+21,8.71614519961931e+18,3.077017815693509e+20
4.102336222,-4.0136988791975885e+21,8.24909211358702e+18,3.052487618638266e+20
4.104336522,-4.0042624082366714e+21,7.783965778009948e+18,3.0280104815239365e+20
4.106336555,-3.9947666184185777e+21,7.320768255535915e+18,3.0035867600628115e+20
4.108336588,-3.98521194468853e+21,6.859501563405353e+18,2.979216806898308e+20
4.110336621,-3.975598823961266e+21,6.400167674215039e+18,2.954900971601828e+20
4.112336654,-3.9659276951956813e+21,5.942768516686152e+18,2.9306396006699604e+20
4.114336987,-3.956198999466793e+21,5.487305976436204e+18,2.9064330375219538e+20
4.116337387,-3.946413180034893e+21,5.033781896754319e+18,2.8822816224973894e+20
4.118337353,-3.9365706824117555e+21,4.582198079379239e+18,2.8581856928539817e+20
4.120337319,-3.9266719544237925e+21,4.1325562852794327e+18,2.8341455827654305e+20
4.122337285,-3.916717446272064e+21,3.6848582354347213e+18,2.8101616233192463e+20
4.124337251,-3.906707610589018e+21,3.239105611618767e+18,2.7862341425144503e+20
4.126337217,-3.896642902491845e+21,2.7953000571817574e+18,2.7623634652590768e+20
4.128338083,-3.8865237796323664e+21,2.35344317783261e+18,2.7385499133674206e+20
4.130338516,-3.8763507022433773e+21,1.9135365424200172e+18,2.7147938055569985e+20
4.132339182,-3.866124133181386e+21,1.4755816837116467e+18,2.6910954574451887e+20
4.134339182,-3.855844537965713e+21,1.0395800991708088e+18,2.6674551815455244e+20
4.136339182,-3.845512384813904e+21,6.05533251729888e+17,2.6438732872636223e+20
4.138339182,-3.8351281446733973e+21,1.734425705598121e+17,2.620350080892747e+20
4.140339182,-3.824692291249407e+21,-2.56690548165163e+17,2.596885865609007e+20
4.142339182,-3.8142053010290225e+21,-6.848647405080832e+17,2.573480941466178e+20
4.144339182,-3.803667653301541e+21,-1.1110786740160737e+18,2.550135605390179e+20
4.146339515,-3.7930798301750063e+21,-1.535331046973997e+18,2.5268501511732357e+20
4.148339515,-3.7824423165889295e+21,-1.9576205876657275e+18,2.5036248694677622e+20
4.150339548,-3.7717556003231236e+21,-2.377946053643784e+18,2.4804600477799704e+20
4.152339581,-3.761020172002604e+21,-2.7963062310080594e+18,2.4573559704632243e+20
4.154339614,-3.7502365250984933e+21,-3.2126999336943903e+18,2.4343129187111587e+20
4.156339647,-3.7394051559248563e+21,-3.6271260027737334e+18,2.4113311705506093e+20
4.158340147,-3.7285265636314044e+21,-4.0395833057627177e+18,2.3884110008344065e+20
4.16034018,-3.7176012501920336e+21,-4.450070735946375e+18,2.3655526812340847e+20
4.162340213,-3.706629720389179e+21,-4.858587211713823e+18,2.3427564802325663e+20
4.164341113,-3.695612481793981e+21,-5.265131675907686e+18,2.3200226631168767e+20
4.166341079,-3.684550044742276e+21,-5.66970309518807e+18,2.2973514919709455e+20
4.168341045,-3.6734429223064196e+21,-6.072300459411857e+18,2.274743225668542e+20
4.170340611,-3.662291630262948e+21,-6.472922781028155e+18,2.2521981198663942e+20
4.172340577,-3.65109668705611e+21,-6.871569094490677e+18,2.2297164269975398e+20
4.174340543,-3.6398586137572897e+21,-7.268238455687782e+18,2.207298396264952e+20
4.176340643,-3.628577934020333e+21,-7.662929941390885e+18,2.184944273635465e+20
4.178340643,-3.6172551740327985e+21,-8.055642648721924e+18,2.1626543018340385e+20
4.180340643,-3.6058908624631166e+21,-8.446375694640685e+18,2.1404287203383837e+20
4.182340676,-3.594485530403648e+21,-8.835128215452787e+18,2.1182677653739772e+20
4.184340709,-3.583039711309644e+21,-9.22189936633915e+18,2.0961716699095053e+20
4.186340742,-3.571553940934121e+21,-9.606688320907723e+18,2.0741406636527557e+20
4.188340775,-3.5600287572586765e+21,-9.989494270768267e+18,2.052174973046974e+20
4.190340808,-3.5484647004202976e+21,-1.0370316425130983e+19,2.0302748212676946e+20
4.192340841,-3.5368623126342743e+21,-1.0749154010429637e+19,2.008440428220074e+20
4.194340874,-3.52522213811335e+21,-1.112600626996976e+19,1.9866720105367627e+20
4.196340874,-3.5135447229832395e+21,-1.1500872463602582e+19,1.9649697815763485e+20
4.198340874,-3.501830615194646e+21,-1.1873751867425227e+19,1.943333951422396e+20
4.200340874,-3.4900803644319334e+21,-1.22446437735076e+19,1.9217647268831035e+20
4.202340874,-3.4782945220186205e+21,-1.261354748964633e+19,1.9002623114915663e+20
4.204340874,-3.466473640819855e+21,-1.2980462339146154e+19,1.8788269055066243e+20
4.206339974,-3.454618275142007e+21,-1.3345387660628951e+19,1.8574587059142787e+20
4.208339974,-3.442728980629508e+21,-1.3708322807870587e+19,1.8361579064296473e+20
4.21033994,-3.4308063141590603e+21,-1.4069267149665665e+19,1.8149246974994547e+20
4.212339906,-3.4188508337313216e+21,-1.442822006972031e+19,1.7937592663050656e+20
4.214339872,-3.406863098360214e+21,-1.4785180966573162e+19,1.7726617967660735e+20
4.216339838,-3.3948436679600175e+21,-1.514014925354464e+19,1.7516324695444632e+20
4.218339338,-3.3827931032304537e+21,-1.549312435871449e+19,1.730671462049351e+20
4.220339304,-3.370711965539993e+21,-1.5844105724927738e+19,1.709778948442308e+20
4.22233927,-3.3586008168075866e+21,-1.6193092809829106e+19,1.6889550996432644e+20
4.224338336,-3.3464602193830294e+21,-1.6540085085925982e+19,1.6682000833369788e+20
4.226338336,-3.334290735926159e+21,-1.6885082040680071e+19,1.647514063980082e+20
4.228338369,-3.322092929285087e+21,-1.7228083176627945e+19,1.6268972028087055e+20
4.230338469,-3.309867362373637e+21,-1.7569088011530764e+19,1.606349657846713e+20
4.232338502,-3.297614598048175e+21,-1.790809607855335e+19,1.5858715839145653e+20
4.234338535,-3.2853351989840194e+21,-1.8245106926472659e+19,1.5654631326388506e+20
4.236338535,-3.273029727551614e+21,-1.8580120119915577e+19,1.5451244524625016e+20
4.238338568,-3.260698745692647e+21,-1.8913135239626064e+19,1.5248556886557327e+20
4.240338601,-3.248342814796309e+21,-1.9244151882761503e+19,1.504656983327716e+20
4.242338601,-3.235962495575857e+21,-1.957316966321799e+19,1.484528475439011e+20
4.244337901,-3.2235583479456454e+21,-1.9900188211984073e+19,1.4644703008147623e+20
4.246337201,-3.211130930898802e+21,-2.022520717752225e+19,1.4444825921586882e+20
4.248336834,-3.198680802385711e+21,-2.054822622617754e+19,1.4245654790678564e+20
4.2503368,-3.1862085191934925e+21,-2.0869245042612208e+19,1.4047190880482427e+20
4.252336766,-3.173714636826636e+21,-2.1188263330265793e+19,1.384943542531069e+20
4.254336732,-3.1611997093889384e+21,-2.150528081183965e+19,1.3652389628899099e+20
4.256336732,-3.1486642894669286e+21,-2.1820297229805388e+19,1.3456054664585478e+20
4.258336732,-3.136108928014951e+21,-2.2133312346936377e+19,1.3260431675495639e+20
4.260336765,-3.123534174242067e+21,-2.2444325946861683e+19,1.3065521774736402e+20
4.262336798,-3.110940575500897e+21,-2.2753337834641687e+19,1.2871326045595514e+20
4.264336831,-3.098328677178514e+21,-2.3060347837364896e+19,1.2677845541748212e+20
4.266338064,-3.085699022589505e+21,-2.336535580476529e+19,1.248508128747022e+20
4.268338097,-3.073052152871346e+21,-2.3668361609859727e+19,1.2293034277856923e+20
4.27033813,-3.060388606882257e+21,-2.3969365149604774e+19,1.2101705479048489e+20
4.272338163,-3.0477089211016985e+21,-2.426836634557219e+19,1.191109582846064e+20
4.274338163,-3.035013629533655e+21,-2.4565365144642126e+19,1.1721206235020722e+20
4.276338163,-3.0223032636127796e+21,-2.486036151971296e+19,1.1532037579408776e+20
4.278339129,-3.009578352113468e+21,-2.5153355470426604e+19,1.134359071430346e+20
4.280339129,-2.9968394210619026e+21,-2.544434702390821e+19,1.1155866464632583e+20
4.282339129,-2.9840869936511184e+21,-2.573333623551928e+19,1.0968865627828021e+20
4.284339129,-2.9713215901590964e+21,-2.6020323189623095e+19,1.0782588974084784e+20
4.286339129,-2.958543727869882e+21,-2.6305308000361087e+19,1.0597037246624104e+20
4.288339095,-2.945753920997721e+21,-2.658829081243884e+19,1.0412211161960389e+20
4.290339395,-2.932952680614194e+21,-2.6869271801920487e+19,1.022811141017191e+20
4.292339361,-2.9201405145782965e+21,-2.714825117703022e+19,1.0044738655175075e+20
4.294339327,-2.9073179274694214e+21,-2.742522917895979e+19,9.862093535002139e+19
4.296340893,-2.894485420523213e+21,-2.770020608268085e+19,9.68017666208229e+19
4.298340859,-2.8816434915702357e+21,-2.7973182197760623e+19,9.498988623526075e+19
4.300340825,-2.8687926349774077e+21,-2.8244157869179306e+19,9.318529981413091e+19
4.302340791,-2.8559333415921553e+21,-2.851313347814785e+19,9.138801273082885e+19
4.304341457,-2.8430660986892724e+21,-2.8780109442924937e+19,8.95980301142904e+19
4.306342157,-2.8301913899204503e+21,-2.904508621963218e+19,8.781535685196317e+19
4.308341623,-2.817309695266475e+21,-2.930806430306658e+19,8.603999759280636e+19
4.310341656,-2.8044214909921216e+21,-2.9569044227509125e+19,8.427195675031817e+19
4.312341689,-2.7915272496037757e+21,-2.9828026567528546e+19,8.251123850559003e+19
4.314341155,-2.7786274398098004e+21,-3.0085011938779267e+19,8.07578468103865e+19
4.316341188,-2.7657225264836693e+21,-3.0340000998792397e+19,7.901178539025013e+19
4.318341221,-2.752812970629883e+21,-3.059299444775869e+19,7.727305774763082e+19
4.320341221,-2.7398992293526755e+21,-3.0843993029302616e+19,7.554166716503982e+19
4.322341187,-2.7269817558274975e+21,-3.109299753124679e+19,7.381761670822874e+19
4.324341153,-2.714060999275267e+21,-3.134000878636571e+19,7.210090922939338e+19
4.326340153,-2.7011374049393807e+21,-3.158502767312801e+19,7.0391547370401825e+19
4.328339219,-2.6882114140654807e+21,-3.1828055116426117e+19,6.868953356604552e+19
4.330339185,-2.675283463883989e+21,-3.2069092088292377e+19,6.699487004731133e+19
4.332339151,-2.662353987595416e+21,-3.230813960860051e+19,6.53075588446729e+19
4.334339151,-2.649423414358425e+21,-3.254519874575155e+19,6.3627601791399035e+19
4.336339151,-2.636492169280647e+21,-3.278027061734346e+19,6.195500052687638e+19
4.338338217,-2.623560673412216e+21,-3.3013356390823854e+19,6.028975649994323e+19
4.34033825,-2.6106293437420326e+21,-3.3244457284125196e+19,5.8631870972231156e+19
4.342338283,-2.5976985931967334e+21,-3.3473574566281708e+19,5.69813450215114e+19
4.344338316,-2.584768830642374e+21,-3.3700709558027452e+19,5.533817954504245e+19
4.346338349,-2.571840460888807e+21,-3.3925863632374923e+19,5.370237526291533e+19
4.348338382,-2.558913884696739e+21,-3.41490382151737e+19,5.2073932721392845e+19
4.350338415,-2.545989498787416e+21,-3.4370234785648902e+19,5.0452852296239284e+19
4.352338448,-2.533067695854908e+21,-3.458945487691904e+19,4.883913419603712e+19
4.354338448,-2.520148864580924e+21,-3.4806700076492653e+19,4.723277846548762e+19
4.356336348,-2.507233389652092e+21,-3.5021972026743194e+19,4.563378498869199e+19
4.358336348,-2.49432165177961e+21,-3.523527242536154e+19,4.4042153492409745e+19
4.360336348,-2.481414027721193e+21,-3.544660302578562e+19,4.245788354929099e+19
4.362336348,-2.468510890305209e+21,-3.5655965637606375e+19,4.088097458107915e+19
4.364336348,-2.4556126084569057e+21,-3.5863362126949384e+19,3.9311425861781094e+19
4.366336314,-2.442719547226608e+21,-3.606879441683215e+19,3.774923652080163e+19
4.36833718,-2.4298320678197993e+21,-3.6272264487496974e+19,3.619440554603928e+19
4.370337146,-2.4169505276289415e+21,-3.647377437671919e+19,3.4646931786940056e+19
4.372337112,-2.4040752802669087e+21,-3.667332618009097e+19,3.3106813957506335e+19
4.374337645,-2.3912066756019046e+21,-3.6870922051280798e+19,3.1574050639257633e+19
4.376337611,-2.378345059793762e+21,-3.7066564202269245e+19,3.0048640284140503e+19
4.378337577,-2.3654907753315204e+21,-3.726025490356201e+19,2.8530581217384956e+19
4.38033741,-2.352644161072177e+21,-3.745199648438059e+19,2.701987164030491e+19
4.38233741,-2.3398055522805125e+21,-3.764179133283087e+19,2.5516509633040056e+19
4.384337443,-2.3269752806698763e+21,-3.782964189604984e+19,2.4020493157236638e+19
4.386338143,-2.314153674443833e+21,-3.8015550680330535e+19,2.2531820058664567e+19
4.388339076,-2.3013410583385746e+21,-3.8199520251225965e+19,2.1050488069768217e+19
4.390339109,-2.2885377536660362e+21,-3.83815532336323e+19,1.957649481214835e+19
4.392339142,-2.2757440783576528e+21,-3.856165231185186e+19,1.8109837798972539e+19
4.394339175,-2.262960347008704e+21,-3.873982022963665e+19,1.6650514437311414e+19
4.396339208,-2.2501868709231712e+21,-3.891605979021345e+19,1.5198522030398358e+19
4.398339208,-2.237423958159029e+21,-3.909037385629178e+19,1.3753857779810419e+19
4.400339174,-2.224671913573903e+21,-3.926276535005597e+19,1.231651878756837e+19
4.40233914,-2.2119310388710364e+21,-3.9433237253141955e+19,1.0886502058153787e+19
4.404339106,-2.1992016326454977e+21,-3.960179260660004e+19,9.463804500441235e+18
4.406339072,-2.18648399043056e+21,-3.97684345108442e+19,8.048422929543627e+18
4.408339038,-2.1737784047441732e+21,-3.993316612558861e+19,6.640354068569014e+18
4.410339004,-2.161085165135454e+21,-4.009599066977206e+19,5.239594550287036e+18
4.41233897,-2.1484045582311044e+21,-4.025691142147113e+19,3.846140918703362e+18
4.41433897,-2.135736867781685e+21,-4.041593171780305e+19,2.459989630540546e+18
4.41634087,-2.123082374707671e+21,-4.0573054954819355e+19,1.081137056623787e+18
4.418340903,-2.1104413571452135e+21,-4.0728284587391255e+19,-2.90420516829825e+17
4.420340936,-2.097814090491531e+21,-4.088162412908754e+19,-1.6546868870198804e+18
4.422340969,-2.085200847449847e+21,-4.10330771520456e+19,-3.0116659334702776e+18
4.424341002,-2.0726018980737922e+21,-4.11826472868361e+19,-4.36136161703705e+18
4.426341035,-2.0600175098111858e+21,-4.1330338222322024e+19,-5.703777979017445e+18
4.428341068,-2.047447947547127e+21,-4.147615370551257e+19,-7.038919140361224e+18
4.430341101,-2.034893473646316e+21,-4.162009754141262e+19,-8.366789300985004e+18
4.432341101,-2.0223543479945375e+21,-4.1762173592868225e+19,-9.687392739190407e+18
4.434341101,-2.0098308280392404e+21,-4.190238578040871e+19,-1.1000733811186598e+19
4.436341101,-1.9973231688291765e+21,-4.204073808208593e+19,-1.230681695071771e+19
4.438341101,-1.9848316230530572e+21,-4.217723453331105e+19,-1.360564666879551e+19
4.440341234,-1.9723564410771908e+21,-4.231187922668913e+19,-1.4897227553537507e+19
4.442341234,-1.9598978709820528e+21,-4.2444676311851926e+19,-1.6181564270110589e+19
4.444340534,-1.9474561585977429e+21,-4.257562999528987e+19,-1.745866156078003e+19
4.4463405,-1.9350315475382892e+21,-4.2704744540183265e+19,-1.8728524245063467e+19
4.448340466,-1.9226242792347738e+21,-4.283202426623322e+19,-1.9991157219989422e+19
4.450340432,-1.9102345929672444e+21,-4.295747354949262e+19,-2.1246565460459717e+19
4.452339598,-1.8978627258954002e+21,-4.308109682219752e+19,-2.249475401971499e+19
4.454339564,-1.8855089130880274e+21,-4.320289857259923e+19,-2.3735728029902406e+19
4.45633953,-1.8731733875511892e+21,-4.332288334479701e+19,-2.4969492702744347e+19
4.458339496,-1.8608563802551783e+21,-4.344105573857093e+19,-2.619605333030689e+19
4.460339496,-1.8485581201602553e+21,-4.355742040921414e+19,-2.741541528586676e+19
4.462339529,-1.8362788342412188e+21,-4.3671982067363545e+19,-2.862758402487514e+19
4.464339562,-1.824018747510852e+21,-4.378474547882793e+19,-2.9832565086016864e+19
4.466339595,-1.811778083042269e+21,-4.38957154644122e+19,-3.1030364092363276e+19
4.468339628,-1.7995570619901836e+21,-4.4004896899736535e+19,-3.2220986752616923e+19
4.470339661,-1.787355903611101e+21,-4.411229471504931e+19,-3.3404438862445904e+19
4.472339694,-1.775174825282447e+21,-4.421791389503265e+19,-3.4580726305905738e+19
4.474339727,-1.7630140425206476e+21,-4.432175947859978e+19,-3.5749855056946627e+19
4.47633836,-1.750873768998176e+21,-4.44238365586836e+19,-3.691183118100372e+19
4.478338326,-1.7387542165595923e+21,-4.452415028201587e+19,-3.806666083666762e+19
4.480338292,-1.7266555952366008e+21,-4.462270584889593e+19,-3.921435027743238e+19
4.482338258,-1.7145781132621576e+21,-4.471950851294803e+19,-4.0354905853517955e+19
4.484338224,-1.7025219770836593e+21,-4.4814563580866e+19,-4.148833401376447e+19
4.48633819,-1.6904873913752496e+21,-4.490787641214481e+19,-4.2614641307595375e+19
4.488338156,-1.6784745590492737e+21,-4.499945241879832e+19,-4.373383438704673e+19
