Time (s),Acceleration x (m/s^2),Acceleration y (m/s^2),Acceleration z (m/s^2)
9.003126185,3.2026666842395355,-2.1310159032265688,0.3940891116178621
9.007915716,3.250194805779678,-2.2869773728127507,0.26942797636263066
9.012691914,3.289344303409328,-2.4331665424123097,0.14828457407629958
9.017454778,3.320256868536103,-2.568145215021704,0.0314522533210369
9.02224431,3.3430859587151565,-2.690511944209487,-0.0803025947201183
9.027020508,3.357993542112958,-2.7989143008875716,-0.186247362107632
9.031783372,3.365147203101788,-2.8920610769538784,-0.28568991120997267
9.036572903,3.364717671818531,-2.9687343189524267,-0.3779850654049729
9.041349101,3.3568768315242115,-3.0278010844668692,-0.4625408444905419
9.046111966,3.3417962473392318,-3.0682248144040667,-0.5388243849277824
9.050901497,3.3196462485991614,-3.0890762156396687,-0.606367484752932
9.055677695,3.290595584914178,-3.0895435506859954,-0.6647717136742873
9.06044056,3.254811663258819,-3.0689422340742407,-0.7137130308041065
9.065230039,3.2124613602744057,-3.026723638986099,-0.7529458557490171
9.070006237,3.1637123906237266,-2.962483022339561,-0.7823065431990149
9.074769153,3.108735198892686,-2.875966482093925,-0.8017162164173249
9.079558633,3.0477053293851397,-2.767076867037651,-0.8111829209699019
9.08433483,2.9808062153960395,-2.635878566730192,-0.8108030665883535
9.089111028,2.9082323173902216,-2.4826011174855793,-0.8007621321280173
9.093887278,2.8301925282585376,-2.3076415691957384,-0.781334615942219
9.098663424,2.74691375388455,-2.1115655673040834,-0.7528832213835677
9.103426341,2.6586445691476284,-1.8951071142757,-0.7158572743800592
9.10821582,2.5656588437476477,-1.659166985360981,-0.670790377089384
9.112992018,2.468259229279569,-1.404809784161227,-0.6182973086142061
9.117754935,2.366780398973654,-1.133259634311928,-0.5590701907750617
9.122544414,2.2615919343470896,-0.8458945143831993,-0.4938739439652895
9.127320612,2.1531007584742183,-0.5442392538253586,-0.4235410649613218
9.132083528,2.0417530235118853,-0.2299572185104882,-0.34896576493759585
9.136873008,1.9280353704099098,0.09515927478884854,-0.2710975115687098
9.141649205,1.8124754912601424,0.42919976477507077,-0.19093402386263938
9.146412122,1.6956419392374498,0.7701476118021634,-0.10951377233320138
9.151201601,1.5781431471170695,1.1158930521366375,-0.027908040543591132
9.155977799,1.4606256322447924,1.4642472582179529,0.05278739278457429
9.160740664,1.3437713827879398,1.8129573127958007,0.13146088891296354
9.165530195,1.2282944363784654,2.159721995122553,0.20699383664933976
9.170306393,1.1149366773844411,2.502208268072594,0.27826972545954703
9.17506931,1.0044628927827894,2.8380683462741265,0.34418333594718253
9.179858789,0.8976551388971914,3.1649572172546807,0.4036499788731986
9.184634987,0.7953064821088361,3.4805504804171217,0.4556147137235411
9.189397851,0.6982141860260656,3.7825623625636102,0.49906147796866435
9.194187383,0.6071724254833699,4.068763763818587,0.533022058472165
9.19896358,0.5229646141366555,4.337000184266992,0.5565848369570789
9.203726445,0.44635543740090944,4.585209379479785,0.5689032420670062
9.208515976,0.3780826861698057,4.811438592385298,0.5692038414499495
9.213292174,0.31884898932885275,5.013861209693261,0.5567940085263422
9.218055039,0.2693135446777484,5.190792693306553,0.531069100222399
9.22284457,0.23008394860766074,5.34070564085826,0.49151908395505484
9.227620768,0.20170822474268235,5.462243834652288,0.4377345545148974
9.232383633,0.1846671506852351,5.554235144796189,0.36941208417824173
9.237173164,0.17936697990150363,5.615703160098969,0.2863588523945069
9.241949362,0.18613265255162462,5.645877429251772,0.18849650479516297
9.246712226,0.20520158465981497,5.6442022048075335,0.07586419513102469
9.251501758,0.23671811944504273,5.610343593441144,-0.05137923188493531
9.256277955,0.2807287179719267,5.544195027837986,-0.19295395397093146
9.26104082,0.33717795866575734,5.445880988257476,-0.3484588126924835
9.265830351,0.405905406831159,5.3157589152582485,-0.5173719089077826
9.270606549,0.4866434063088928,5.154419269135904,-0.6990521720800532
9.275382747,0.5790158360014581,4.962683706184488,-0.8927419167454216
9.280158945,0.6825378643943547,4.7416013568294755,-1.0975703924724702
9.284935143,0.7966167255601461,4.492443205891875,-1.3125583262536435
9.289711289,0.9205535305622369,4.216694590650144,-1.53662344838991
9.294487487,1.0535461187282011,3.9160458479079336,-1.7685869845481157
9.299263685,1.194692943966383,3.5923811569079,-2.0071810877936374
9.304039883,1.3429979821722184,3.2477656406251043,-2.251057175069203
9.30881608,1.497376636815842,2.884430803701198,-2.4987951228752188
9.313592278,1.6566626110013674,2.5047584010039508,-2.7489132669129073
9.318368476,1.8196157056088829,2.1112628464511136,-2.9998791403218954
9.323144674,1.9849304945469444,1.7065722872277818,-3.250120875052426
9.327920872,2.1512458196402515,1.2934084837253583,-3.498039181045467
9.33269707,2.31715503922774,0.8745656502790956,-3.7420198084282963
9.337473268,2.481216956094934,0.45288842588802625,-3.980446389014979
9.342249466,2.6419673418487672,0.031249157344002017,-4.211713545130872
9.347012383,2.79793096626793,-0.3874753106633985,-4.434240146208671
9.351801862,2.9476340316746694,-0.800427133092653,-4.646482586750805
9.35657806,3.089616904265193,-1.2047910350957474,-4.846947953149685
9.361340976,3.2224470269446663,-1.5978177333206187,-5.034206941586878
9.366130455,3.344731891807227,-1.97684697996875,-5.206906384955652
9.370906653,3.4551319451190765,-2.339329997855833,-5.363781243712263
9.37566957,3.552373293530562,-2.6828510732118915,-5.503665914082357
9.380459049,3.6352600772341352,-3.0051480739705605,-5.625504707526616
9.385235247,3.7026863738888633,-3.3041316651712473,-5.728361358263377
9.389998164,3.7536474964392332,-3.577903000209562,-5.811427421445743
9.394787643,3.7872505487089354,-3.8247696774345545,-5.87402943378963
9.399563841,3.8027241052110825,-4.043259766476696,-5.915634721602913
9.404326758,3.7994268864203655,-4.232133728277915,-5.935855759051296
9.409116237,3.776855308384988,-4.390394077776328,-5.934453003019378
9.413892435,3.734649796905271,-4.517292669140952,-5.911336160320623
9.418655299,3.672599772657299,-4.612335520271933,-5.866563876748833
9.42344483,3.5906472351969265,-4.675285134765403,-5.800341872210407
9.428221028,3.4888888998792504,-4.706160323334154,-5.7130195782739195
9.432983893,3.367576869683216,-4.705233569775079,-5.605085361620263
9.437773424,3.2271178502150644,-4.6730260260529795,-5.477160438561068
9.442549622,3.068070938211773,-4.610300254746542,-5.329991602606639
9.447312487,2.8911440311179284,-4.518050863912801,-5.164442899866056
9.452102018,2.6971889186933313,-4.397493199312431,-4.981486396506625
9.456878216,2.487195128301892,-4.250050272416687,-4.782192188887441
9.46164108,2.2622826042520967,-4.077338110401932,-4.567717810289017
9.466430612,2.023693308560236,-3.8811497171797598,-4.339297188202502
9.47120681,1.7727818357979181,-3.663437833174483,-4.098229302784788
9.475969674,1.5110051381712735,-3.4262966768399954,-3.8458666904131116
9.480759205,1.239911458556974,-3.171942843640901,-3.5836039266550976
9.485535403,0.9611285688887308,-2.9026955292733985,-3.3128662110728455
9.490298268,0.6763514092788021,-2.6209562341312425,-3.0350981630034184
9.495087799,0.3873292200944916,-2.3291880962630236,-2.7517529237755713
9.499863997,0.09585225562663084,-2.0298949911220383,-2.464281647563555
9.504626862,-0.19626183523716556,-1.725600529066595,-2.1741234508122904
9.509416393,-0.4871818781599911,-1.4188270765879443,-1.8826958792373951
9.514192591,-0.7750772100394313,-1.1120749253110573,-1.5913859420138738
9.518955455,-1.058131800315963,-0.8078017344710582,-1.3015417549963972
9.523744987,-1.3345583716294478,-0.5084023781152209,-1.014464828525167
9.528521185,-1.6026124300362354,-0.21618933757869155,-0.7314030301202067
9.533284049,-1.8606061080558833,0.06662620808533434,-0.45354424741257765
9.53807358,-2.1069217149441375,0.33795242805852155,-0.18201077115187
9.542849778,-2.340024879428928,0.595833845470997,0.08214558856366222
9.547612643,-2.558477162887401,0.8384671202139007,0.3379476476892298
9.552402174,-2.7609480171611724,1.0642154269389688,0.5844962590429772
9.557178372,-2.946225961241713,1.2716212542537206,0.820973001460768
9.561941237,-3.113228854357816,1.4594174654766978,1.0466421688897702
9.566730716,-3.2610131488260237,1.6265364809349236,1.2608520884279382
9.571506966,-3.388782013846402,1.7721174654961258,1.4630358018640555
9.57626983,-3.495892230938741,1.8955114317800303,1.652711148619227
9.58105931,-3.5818597727882016,1.9962841983148198,1.8294802892234816
9.58583556,-3.646363989912976,2.0742171718745124,1.9930287080425573
9.590598424,-3.6892503438730646,2.129305953500426,2.1431237325497094
9.595387903,-3.7105316417583416,2.1617567975377914,2.2796126046762257
9.600164101,-3.7103877442887154,2.171980981795272,2.4024201382339316
9.604927018,-3.689163738619316,2.16058717415628,2.511545995463663
9.609716497,-3.6473665861563767,2.1283719062260604,2.6070616155661814
9.614492695,-3.5856602744251043,2.0763082875784074,2.6891068285235855
9.619255612,-3.5048595194133743,2.0055331146563113,2.7578861883633206
9.624045091,-3.405922080344042,1.9173325462175115,2.8136650609323466
9.628821289,-3.2899397624979283,1.8131265322390397,2.856765501954767
9.633584205,-3.158128195855968,1.6944521952473777,2.887561961481371
9.638373685,-3.011815488375044,1.5629463720002201,2.9064768507777714
9.643149883,-2.852429862984757,1.4203275292558806,2.9139760072919363
9.647912799,-2.6814863970767275,1.2683772700541893,2.9105640926561374
9.652702278,-2.50057299242646,1.1089216466042486,2.896779957760153
9.657478476,-2.3113357121225198,0.9438124926709374,2.8731920078164914
9.662241393,-2.1154636290552133,0.7749089823623936,2.840393599037038
9.667030872,-1.914673337577387,0.6040596134027609,2.798998497005113
9.67180707,-1.7106932856961679,0.43308480118398124,2.7496364249249154
9.676569987,-1.5052480891083382,0.26376025503562106,2.6929487275126123
9.681359466,-1.3000429900900543,0.09780129036750249,2.629584173332139
9.686135664,-1.0967486233390744,-0.06315178992367908,2.560194915045766
9.69089858,-0.8969862471884701,-0.21754713336854015,2.4854326236697797
9.69568806,-0.7023135922938711,-0.36393350640599903,2.4059448099010594
9.700464258,-0.514211471359825,-0.5009711268753322,2.3223713433530047
9.705227174,-0.3340712832711856,-0.62744111466502,2.235341179510402
9.710016653,-0.16318353360099103,-0.7422535331871694,2.145469304546486
9.714792851,-0.002727481125574785,-0.8444540104491899,2.053353909553311
9.719555768,0.14623799326543754,-0.9332289422670679,1.9595738074226012
9.724345247,0.28278221309165785,-1.0079092918445771,1.8646861065157947
9.729121445,0.40610916131349606,-1.067973009800021,1.7692241545564014
9.73388431,0.515562513157934,-1.1130461070421644,1.6736957637198278
9.738673841,0.6106292129309925,-1.1429024199970315,1.5785817241856606
9.743450039,0.6909415782526565,-1.1574621139053454,1.4843346091522973
9.748212903,0.7562779323912894,-1.1567889755631273,1.3913778699955526
9.753002435,0.806561782348602,-1.1410865522169473,1.300105216136904
9.757778633,0.8418595768354229,-1.110693198517106,1.2108802704236332
9.76255483,0.862377094081915,-1.0660760985580824,1.1240364875489361
9.767331028,0.8684545243471256,-1.0078243351005791,1.0398773203654992
9.772107226,0.8605603258365045,-0.9366410830223899,0.958676616905319
9.776870091,0.839283945301325,-0.8533350088151281,0.8806792294450134
9.781659622,0.8053275056637486,-0.7588109624727873,0.8061018159090189
9.78643582,0.7594965723602491,-0.6540600523717974,0.735133813137105
9.791198685,0.7026901175388189,-0.5401491976936981,0.6679385609701979
9.795988216,0.6358898067043002,-0.41821025653763677,0.6046545557121997
9.800764414,0.5601487359475086,-0.2894288310001342,0.5453968113130232
9.805527278,0.4765797496980908,-0.15503285299031447,0.49025830656847447
9.81031681,0.3863434692238283,-0.01628105619217749,0.4393114966850129
9.815093008,0.29063616103891826,0.12554855981361604,0.3926098676416649
9.819855872,0.1906775721012672,0.26917016784440684,0.3501895118530083
9.824645403,0.08769885524749436,0.4133013502704,0.3120707036939095
9.829421601,-0.017069296237220286,0.5566740346660777,0.2782594535329199
9.834184466,-0.12240819170822519,0.6980450321290912,0.24874901912680553
9.838973997,-0.22712225757702148,0.8362060883051006,0.22352135367343082
9.843750195,-0.33004962478691746,0.9699933643006945,0.20254847061535133
9.84851306,-0.43007210025333675,1.0982962729516355,0.1857937064860594
9.853302591,-0.5261244432498084,1.2200656051182397,0.17321286465433747
9.858078789,-0.6172028784288519,1.3343208905188984,0.16475522460557745
9.862854987,-0.70237278822159,1.4401569477855343,0.160364403201215
9.867631185,-0.7807755385080336,1.5367495886603455,0.15997905602697643
9.872407383,-0.8516344024878298,1.623360451341362,0.16353340848038456
9.87718358,-0.9142595584569518,1.6993409477856676,0.17095760783788813
9.881959778,-0.9680521476103632,1.7641353192143883,0.18217788945848445
9.886735976,-1.0125073879955488,1.8172828030839634,0.19711655276387788
9.891498841,-1.0472167503228653,1.8584189233386512,0.21569174578366201
9.896288372,-1.0718692104840097,1.8872759237584247,0.23781706081028628
9.901064518,-1.086251602292656,1.903682371571678,0.2634009479305147
9.905827435,-1.0902481020422763,1.9075619651418163,0.2923459577436272
9.910616966,-1.0838388838430084,1.898931585427721,0.3245478293276121
9.915393164,-1.0670979912243976,1.8778986360565555,0.3598944443768668
9.920156028,-1.0401904760757616,1.844657721238705,0.39826467330828014
9.92494556,-1.0033688605812572,1.7994867144021125,0.4395271438957384
9.929721705,-0.9569689813773989,1.7427422733339224,0.48353896749805075
9.934484622,-0.9014052777457549,1.6748548598141157,0.5301444620283823
9.939274153,-0.8371655873169072,1.5963233232505345,0.5791739143127632
9.944050351,-0.7648055135986169,1.5077091087305057,0.6304424272454853
9.948813216,-0.6849424297768745,1.4096301502455415,0.6837488990054134
9.953602747,-0.5982491828119239,1.3027545096683453,0.7388751823536752
9.958378945,-0.5054475609825084,1.1877938213997714,0.7955854714543875
9.96314181,-0.4073015868000221,1.0654966014917517,0.8536259614872211
9.967931289,-0.3046106956611208,0.9366414785489369,0.9127248223111553
9.972707487,-0.19820285875152477,0.8020304019159896,0.9725925214208535
9.977470403,-0.08892770656371035,0.6624818806991729,1.0329225233729518
9.982259883,0.022350293056449217,0.5188243051711232,1.0933923829100205
9.98703608,0.13475855118881097,0.37188940012509497,1.153665237577628
9.991812278,0.24742292043633735,0.22250585774015533,1.2133916933500286
9.996588476,0.3594740593830487,0.07149319535609584,1.2722120844406857
10.00136473,0.4700535584205055,-0.08034411895673822,1.329759076875917
10.00612759,0.5783197907733827,-0.23222223319195803,1.3856605752146318
10.01091707,0.6834534571336395,-0.38338313438779864,1.4395428834329258
10.01569327,0.7846627970517462,-0.5330994958451805,1.4910340646590197
10.02045618,0.8811884450622699,-0.6806791212600152,1.539767440179524
10.02524566,0.9723079143723315,-0.8254689632427292,1.585385165886257
10.03002186,1.0573396957195969,-0.9668586984483413,1.6275418239819803
10.03478478,1.135646963596711,-1.1042838460759759,1.6659079691571914
10.03957426,1.2066408863490097,-1.2372284207087132,1.7001735713891586
10.04435046,1.2697835406395996,-1.3652271143036603,1.7300513017635482
10.04911337,1.324590434434766,-1.4878670056078678,1.755279613021647
10.05390285,1.3706326459917975,-1.6047887984019644,1.7756255726187102
10.05867905,1.4075385893124237,-1.7156875928099948,1.7908874126436103
10.06345525,1.4349954191084335,-1.8203131965048722,1.8008967676807528
10.06823144,1.4527500904157231,-1.918469985004016,1.8055205782843715
10.07300764,1.460610089452924,-2.0100163223903222,1.8046626439058553
10.07777056,1.4584438530189763,-2.094863555723001,1.798264814629229
10.08256004,1.4461808935888942,-2.172974598173192,1.7863078157505865
10.08733624,1.4238116463103365,-2.2443621176146893,1.7688117030086545
10.09209915,1.3913870524063112,-2.3090863491056233,1.7458359491970723
10.09688863,1.349017891184566,-2.3672525514714304,1.717479165161346
10.10166483,1.2968738701231066,-2.4190081300595168,1.6838784601071994
10.10644103,1.2351824795599164,-2.4645394496455006,1.6452084480826268
10.11121723,1.1642276155775149,-2.504068363350537,1.601679909797763
10.11599342,1.084347971908004,-2.5378484851888814,1.5535381218962687
10.12075634,0.995935199190641,-2.5661612354265846,1.501060869552374
10.12554582,0.8994318277294701,-2.589311689225291,1.444556162860089
10.13032202,0.7953289480440652,-2.6076242600037647,1.3843596827663478
10.13508494,0.6841636420580981,-2.6214382495392345,1.320831987974468
10.13987441,0.5665161569251275,-2.631103297082808,1.2543555198715906
10.14465061,0.4430068135687519,-2.6369747597913453,1.1853314476049825
10.14941353,0.3142926433671933,-2.6394090567601225,1.11417639944542
10.15420301,0.1810637492794282,-2.6387590090730058,1.0413191291391655
10.15897921,0.044039392092537814,-2.6353692087273393,0.96719716687043
10.16374212,-0.09603619193251738,-2.6295714501196152,0.8922535037302803
10.1685316,-0.23839822951539835,-2.6216802590004264,0.8169333562907238
10.1733078,-0.3822660863013498,-2.6119885553777777,0.7416810540745353
10.17807072,-0.5268481563326559,-2.6007634886872997,0.6669370874533895
10.1828602,-0.6713469367669589,-2.588242485544782,0.5931353469519209
10.18763639,-0.8149642561589451,-2.5746295524019964,0.5207005774027846
10.19241259,-0.9569066217747574,-2.560091877248695,0.4500460623615603
10.19718879,-1.0963906487863706,-2.544756775905859,0.38157154617970207
10.20196499,-1.2326485316246951,-2.528709029171473,0.31566139361558593
10.2067279,-1.364933515255553,-2.51198865684096,0.25268298017052837
10.21151738,-1.4925253218201027,-2.494589173193772,0.19298530063631558
10.21629358,-1.6147354861616958,-2.4764563657530894,0.13689777862303495
10.2210565,-1.7309125524155622,-2.4574876349348265,0.08472925593721396
10.22584598,-1.8404470831007818,-2.4375319266793936,0.036767137378611287
10.23062217,-1.9427764319312746,-2.4163902834919884,-0.0067233363241040725
10.23538509,-2.037389231726873,-2.393817031759699,-0.045499717078395764
10.24017457,-2.1238295492882773,-2.3695216150305853,-0.07934291078846648
10.24495077,-2.2017006599192044,-2.343171074355855,-0.10805770344841607
10.24971369,-2.2706683955149516,-2.3143931679758936,-0.13147328324861524
10.25450316,-2.330464021880156,-2.282780113684923,-0.14944378782802878
10.25927936,-2.380886603252693,-2.2478929282191356,-0.1618489020804151
10.26404228,-2.4218048149221985,-2.209266329068484,-0.1685945266545188
10.26883176,-2.453158168346901,-2.1664141553498357,-0.1696135306667557
10.27360796,-2.474957617298127,-2.1188352560080754,-0.16486659453567143
10.27837087,-2.4872855183229468,-2.0660197859011165,-0.1543431407393938
10.28316035,-2.490294924267328,-2.0074558435473784,-0.1380623421770341
10.28793655,-2.4842081958287063,-1.9426363786742729,-0.11607419006028351
10.29269947,-2.4693149231872553,-1.8710662933029112,-0.08846059613247728
10.29748895,-2.4459691577129017,-1.79226965695429,-0.055336497723314
10.30226514,-2.4145859624643853,-1.7057969546454588,-0.01685092892615263
10.30702801,-2.375637299485352,-1.6112322856269732,0.026811982739048255
10.31181754,-2.329647281475962,-1.5082004312441026,0.07543213727448264
10.31659374,-2.2771868249344838,-1.3963737118011377,0.1287527448120498
10.3213566,-2.218867750986865,-1.275478554744724,0.1864798134122318
10.32614613,-2.1553363886387946,-1.1453016996911765,0.24828188363688947
10.33092233,-2.0872667430633367,-1.0056959696263332,0.31379004803629007
10.33568525,-2.0153532988579483,-0.8565855418678794,0.382598288705866
10.34047473,-1.9403035350054139,-0.6979706570448693,0.4542641596809306
10.34525092,-1.8628302344511243,-0.5299317094512144,0.5283098335765031
10.35001379,-1.783643676542526,-0.35263266775327184,0.604223524182025
10.35480332,-1.7034438048249472,-0.16632378123665548,0.6814612893038138
10.35957952,-1.6229124656657137,0.028656466474647608,0.7594492113589165
