Time (s),Acceleration x (m/s^2),Acceleration y (m/s^2),Acceleration z (m/s^2)
10.00136473,2.73798728,-11.42333508,-1.188036442
10.00612759,2.873780012,-11.58245754,-0.104685992
10.01091707,2.946162939,-11.59262753,0.8644071817
10.01569327,2.913261652,-11.52084255,1.752742529
10.02045618,2.770290375,-11.39641571,2.516651154
10.02524566,2.649452925,-11.2378912,3.111865759
10.03002186,2.637488842,-11.14696407,3.524627686
10.03478478,2.591426849,-11.06979561,3.841676712
10.03957426,2.52143693,-11.04108143,4.019343853
10.04435046,2.497508526,-11.0943222,3.942773581
10.04911337,2.405385017,-11.17149067,3.669991732
10.05390285,2.164906263,-11.18166065,3.281756163
10.05867905,1.795813441,-11.18225861,2.794816732
10.06345525,1.230509043,-11.18345451,2.111067772
10.06823144,0.8596215248,-11.34736347,1.365105271
10.07300764,0.4283152521,-11.55075264,0.6951149702
10.07777056,0.07417750359,-11.77268696,0.2081755698
10.08256004,-0.1836491376,-12.02812099,-0.05922235921
10.08733624,-0.3493520916,-12.30389404,-0.06759724021
10.09209915,-0.2566302419,-12.44806194,0.2967100143
10.09688863,-0.1770688742,-12.44327641,0.8476574421
10.10166483,-0.006580262445,-12.49651623,1.509272933
10.10644103,0.1124626622,-12.50130177,2.214557409
10.11121723,0.1399801224,-12.40977669,2.895315409
10.11599342,0.1280160099,-12.23689461,3.3852458
10.12075634,0.185443759,-12.09691525,3.489931822
10.12554582,0.4833501875,-12.02333546,3.267399311
10.13032202,1.24666059,-12.09870911,2.755335331
10.13508494,2.235494614,-12.35115242,1.766501307
10.13987441,3.209971666,-12.78186035,0.5856433511
10.14465061,4.076771736,-13.23230934,-0.2727817893
10.14941353,4.530809879,-13.63071442,-0.9846464992
10.15420301,4.265206337,-14.01117325,-1.828116536
10.15897921,3.28115797,-14.37966728,-2.657827854
10.16374212,2.00099802,-14.65244961,-3.582055569
10.1685316,1.121635556,-14.8707943,-4.325624943
10.1733078,0.9014959335,-14.99163246,-4.670191765
10.17807072,0.9206385016,-14.94796276,-4.569693089
10.1828602,0.9320043921,-14.72184086,-4.166502476
10.18763639,1.009771109,-14.30788326,-3.663411379
10.19241259,1.049850941,-13.71506119,-3.016152859
10.19718879,0.813559711,-12.95952702,-2.37248373
10.20196499,0.3002992272,-12.17109203,-1.966900229
10.2067279,-0.1926222295,-11.39641571,-1.911865234
10.21151738,-0.4235295951,-10.77069283,-2.021935225
10.21629358,-0.4492524564,-10.34656525,-2.170290232
10.2210565,-0.5258227587,-10.08694363,-2.074577332
10.22584598,-0.5186443329,-9.966704369,-1.604387641
10.23062217,-0.6574280262,-9.870991707,-0.9218349457
10.23538509,-0.9194421172,-9.799206734,-0.1387837082
10.24017457,-1.171884894,-9.704092026,0.7262216806
10.24495077,-1.409372568,-9.570094109,1.605584025
10.24971369,-1.689332843,-9.45583725,2.533401012
10.25450316,-1.899302959,-9.41336441,3.215355396
10.25927936,-2.163709879,-9.573084831,3.443271875
10.26404228,-2.482553482,-9.911071777,3.320041418
10.26883176,-2.810968399,-10.46560764,2.93778801
10.27360796,-3.34875536,-10.9489584,2.644068956
10.27837087,-3.991826296,-11.33061314,2.325823545
10.28316035,-4.555335999,-11.71226883,1.844268084
10.28793655,-4.92442894,-12.04965687,1.165304661
10.29269947,-5.222933769,-12.35892868,0.4085744619
10.29748895,-5.331807137,-12.60957718,-0.4354937077
10.30226514,-5.145765305,-12.79143143,-1.199402332
10.30702801,-4.576273441,-12.87218952,-1.432702541
10.31181754,-4.270590305,-12.74118233,-2.096112728
10.31659374,-4.244269371,-12.49950695,-3.095116138
10.3213566,-4.354937077,-12.2542429,-3.948755503
10.32614613,-4.378865242,-12.04606724,-4.616353035
10.33092233,-4.226921082,-11.96411324,-4.650450706
10.33568525,-3.714258909,-12.0598259,-4.019343853
10.34047473,-3.226721287,-12.1794672,-3.01376009
10.34525092,-2.804388046,-12.13041401,-2.295913219
10.35001379,-2.25703001,-11.8785696,-2.131406784
10.35480332,-1.464407444,-11.41436195,-2.183450699
10.35957952,-0.5718846321,-10.87238789,-2.212762833
10.36434238,0.1842473447,-10.21077251,-2.011167526
10.36913191,0.7651050687,-9.597611427,-1.510469317
10.37390811,0.9062815905,-9.241081238,-0.7818548083
10.37867103,1.083948612,-9.058030128,0.3349951804
10.38346051,1.316650629,-8.966505051,1.768295884
10.3882367,1.509871125,-8.875576973,3.192623615
10.39299957,1.951945066,-8.715856552,4.006183147
10.3977891,3.079562664,-8.519644737,3.362514019
10.4025653,3.895515203,-8.444869041,2.109871387
10.40732816,4.228715897,-8.559126854,1.354935765
10.4121177,4.092923164,-8.714061737,0.890130043
10.41689389,3.548556089,-8.806783676,0.4372883439
10.42165676,2.970689297,-8.793622971,0.09032905847
10.42644629,2.374278307,-8.708079338,-0.195015043
10.43122249,1.55892396,-8.569893837,-0.4115654826
10.43599869,0.6628118753,-8.369495392,-0.4743770957
10.44077488,-0.0466600433,-8.072785378,-0.442073971
10.44555108,-0.4474578202,-7.688737392,-0.4115654826
10.450314,-0.5670989752,-7.259823799,-0.3152543902
10.45510348,-0.5479564071,-6.869793892,-0.142971158
10.45987967,-0.5820540786,-6.48933506,-0.003589233849
10.46464259,-0.5784648657,-6.069993019,0.005982056726
10.46943207,-0.5330012441,-5.631507874,-0.1298106313
10.47420827,-0.5784648657,-5.221737385,-0.3547359705
10.47897113,-0.6999006271,-4.807778835,-0.55154562
10.48376066,-0.8500502706,-4.418346882,-0.7429714203
10.48853686,-0.9188438654,-4.061218262,-0.9056833982
10.49329978,-0.9439685345,-3.733999729,-1.016351461
10.49808926,-0.9690931439,-3.459423304,-1.03549397
10.50286546,-1.002592683,-3.271586657,-1.049850941
10.50762832,-1.07497561,-3.113062143,-1.13120687
10.51241785,-1.14795661,-2.958127022,-1.212562919
10.51719405,-1.196411371,-2.867199659,-1.269990563
10.52195691,-1.21555388,-2.809173822,-1.279561877
10.52674644,-1.238883972,-2.799602509,-1.183250785
10.53152264,-1.190429211,-2.81395936,-1.068395257
10.53629884,-1.165902853,-2.837887764,-0.9822536707
10.54107504,-1.059422255,-2.910270452,-0.8099704385
10.54585124,-0.9056833982,-3.001197815,-0.5659025311
10.55062744,-0.9224331379,-3.113062143,-0.2829512656
10.55540363,-1.044467092,-3.19980216,-0.05623133108
10.56017983,-1.048654556,-3.296113253,0.03050848842
10.56495603,-1.11984098,-3.426522017,0.03110669367
10.56973223,-1.290927768,-3.614956856,-0.04007977992
10.57450842,-1.472184181,-3.831507206,-0.1884347796
10.57928462,-1.372283816,-4.091128349,-0.3996013701
10.58406082,-1.030110121,-4.380061626,-0.6023930907
10.58883702,-0.7393822074,-4.701896667,-0.733400166
10.59361322,-0.6340979934,-5.072185993,-0.8297112584
10.59838941,-0.4815555513,-5.462814331,-0.9260223508
10.60316561,-0.3810569942,-5.919843197,-1.098903775
10.60792853,-0.3194418252,-6.488138676,-1.377667665
10.61271801,-0.3385843933,-7.128218651,-1.808973908
10.6174942,-0.2793620527,-7.826922894,-2.533401012
10.62225712,-0.2309073806,-8.577073097,-3.627519131
10.6270466,-0.04247260094,-9.395418167,-5.076971531
10.6318228,0.111864455,-10.33878803,-6.891329288
10.63658572,0.3433700502,-11.54118156,-9.363115311
10.6413752,0.6484549642,-13.21137238,-12.48335552
10.64615139,1.462014675,-15.63589954,-15.40319729
10.65091431,3.06999135,-18.9362011,-17.87558174
10.65570379,5.809773445,-23.27379036,-19.60977936
10.66047999,10.16112137,-27.49353218,-19.04387665
10.6652429,13.90289783,-30.23690414,-16.2257309
10.67003238,16.8041954,-31.33460999,-13.72044468
10.67480858,18.17767525,-31.24488068,-12.39781189
10.6795715,16.66062546,-29.72663307,-11.44606686
10.68436098,10.43031406,-25.47817802,-10.47099209
10.68913717,5.567500114,-20.56212234,-9.407979965
10.69390009,3.924827337,-16.39861107,-8.250452042
10.69868957,3.135794163,-12.81236839,-6.953542709
10.70346577,2.263011932,-9.779465675,-5.708078384
10.70822868,1.564307809,-7.238288403,-4.241876125
10.71301816,1.043868899,-5.048257351,-2.561516523
10.71779436,0.432502687,-3.036491871,-1.129412293
10.72255728,-0.1645065546,-1.174277663,0.2596212626
10.72734676,-0.8847461939,0.4372883439,1.543370605
10.73212296,-1.610369682,1.668395638,2.626122952
10.73688587,-2.613560438,2.402393818,3.153740168
10.74167535,-3.916452408,2.413759947,3.279961586
10.74645155,-5.01774931,1.631306887,3.267399311
10.75121447,-5.428118229,0.3152543902,3.087937593
10.75600394,-4.84905529,-1.24965167,2.898904562
10.76078014,-3.9170506,-2.986242771,2.631506681
10.76554306,-2.885145903,-4.867599487,2.301297188
10.77033254,-1.823929071,-6.792026997,2.099701881
10.77510874,-0.9511470199,-8.808578491,2.125424623
10.77987165,-0.7244270444,-11.13021469,2.261217356
10.78466113,-0.8817551732,-13.9052906,2.30189538
10.78943733,-1.061815023,-17.19183159,2.160718918
10.79420025,-0.9308080077,-20.88156509,1.409372568
10.79898973,0.1728814393,-24.59283257,-0.5706881881
10.80376592,2.273181438,-27.41875648,-4.101896286
10.80852884,4.92502737,-28.85923576,-9.964909554
10.81331832,7.755138397,-29.1146698,-16.4775753
10.81809452,7.802994728,-27.35116005,-17.07398605
10.82285744,5.788238049,-23.8319149,-10.92802143
10.82764691,3.628715515,-19.31247139,-2.948555708
10.83242311,2.266601324,-14.38026619,3.370888948
10.83718603,1.472782373,-10.03848934,6.567101955
10.84197551,0.5527420044,-6.826723099,6.46421051
10.8467517,-0.6167500615,-4.622334957,4.636094093
10.85151462,-1.807777524,-3.083152056,2.817548752
10.8563041,-2.863610506,-2.121237278,1.113858938
10.8610803,-3.567698479,-1.630110383,-0.1932204217
10.86584322,-3.996612072,-1.467398524,-1.021137118
10.8706327,-4.316651821,-1.521237016,-1.264606714
10.87540889,-4.706682205,-1.853839397,-1.406381488
10.88017181,-5.237290382,-2.19780755,-1.302293777
10.88496129,-5.387440205,-2.438884497,-1.032503009
10.88973749,-5.34676218,-2.665604353,-0.7495517135
10.8945004,-5.077569485,-2.756531715,-0.342771858
10.89928994,-4.770689964,-2.789433002,0.06400800496
10.90406613,-4.531407833,-2.90967226,0.2829512656
10.908829,-4.176671982,-3.111267567,0.5551348329
10.91361848,-4.007379532,-3.381058455,0.8327022791
10.91839467,-3.94815731,-3.766302824,1.019342422
10.92317092,-3.997808456,-4.325624943,1.188634634
10.92794712,-4.074976921,-5.235496044,1.290329576
10.93272332,-4.217350006,-6.653243542,1.320838094
10.93748619,-4.298107624,-8.401798248,1.245464206
10.94227572,-4.093521118,-10.28973579,1.019940615
10.94705191,-3.53718996,-12.36491108,0.7166503668
10.95181478,-2.847458839,-14.34796238,0.3930211067
10.95660431,-2.171486616,-16.01815224,0.2991028428
10.96138051,-1.253240824,-17.31147385,0.4151547253
10.96614337,-0.4259224236,-17.94138336,0.7615157962
10.9709329,0.1387837082,-17.70389748,1.450050473
10.9757091,0.3104687333,-16.57687759,2.100300074
10.98047197,0.4761717021,-15.00060558,2.790031195
10.9852615,0.8416753411,-13.58405399,3.454039574
10.9900377,1.369292736,-12.48933792,3.882354736
10.99480056,2.046461582,-11.71226883,4.646263599
10.99959009,2.512463808,-11.07099247,4.892724037
11.00436629,2.811566591,-10.67438221,4.996811867
11.00912915,3.014358282,-10.41894817,4.856233597
11.01391868,3.314059258,-10.25862885,3.396013498
11.01869488,3.769891977,-10.17488003,1.655833244
11.02345775,4.150949001,-10.20179939,0.17587246
11.02824728,4.399802685,-10.26341438,-1.135394335
11.03302348,4.431507587,-10.26760197,-2.157727718
11.03778634,4.214358807,-10.26819992,-2.73260355
11.04257587,3.870988846,-10.36510944,-2.903690338
11.04735207,3.439084291,-10.4913311,-2.828914642
11.05211494,3.017349243,-10.60798073,-2.592025042
11.05690447,2.558525562,-10.65763187,-2.228914261
11.06168066,2.047657967,-10.5673027,-1.59840548
11.06645686,1.65164578,-10.40518951,-0.9481559992
11.07123306,1.235892892,-10.1270237,-0.3272185028
11.07600926,0.7818548083,-9.79083252,0.3038884699
11.08077212,0.380458802,-9.416355133,0.9433703423
11.08556165,0.04486542568,-9.008378983,1.573879123
11.09033785,-0.2243271172,-8.531609535,2.189432621
11.09510072,-0.6891329288,-8.022536278,2.656631231
11.09989025,-1.397408366,-7.523034573,3.024527788
11.10466645,-2.151147604,-7.115656376,2.850450039
11.10942931,-2.68175602,-6.909275532,1.859821439
11.11421884,-2.754138947,-6.87517786,0.1471585929
11.11899504,-2.575275421,-6.917052269,-1.720439434
11.1237579,-2.374278307,-7.031907558,-3.146561861
11.12854744,-2.364706993,-7.161119938,-3.976871252
11.13332363,-2.331805706,-7.295716286,-4.149752617
11.13808655,-2.237887383,-7.464410305,-3.708875179
11.14287603,-2.003390789,-7.624131203,-2.783450842
11.14765223,-1.596012712,-7.801798344,-1.643869162
11.15242842,-1.017547846,-8.026723862,-0.494716078
11.15720462,-0.5635097623,-8.252845764,0.4821537733
11.16198082,-0.2063809484,-8.454441071,1.258026481
11.16674374,0.09272187948,-8.660821915,1.774876237
11.17153322,0.366101861,-8.882756233,2.066202402
11.17630941,0.5431707501,-9.046066284,2.14696002
11.18107233,0.7142575383,-9.194420815,2.035693884
11.18586181,0.8937192559,-9.305088997,1.814357758
11.19063801,1.016351461,-9.381659508,1.540379524
11.1954142,1.123430252,-9.467801094,1.160519004
11.2001904,1.268195987,-9.577870369,0.5838487148
11.2049666,1.435693622,-9.731011391,-0.1082752272
11.20972952,1.535593987,-9.822537422,-0.9194421172
11.214519,1.567897081,-9.875179291,-1.936989903
11.2192952,1.528415442,-9.797411919,-2.939582586
11.22405811,1.451246977,-9.608977318,-3.81296277
11.22884759,1.308874011,-9.368498802,-4.426123619
11.23362379,1.091725349,-9.151947975,-4.699503899
11.2383867,0.8925228715,-9.022735596,-4.56430912
11.24317619,0.8572286963,-9.032307625,-4.10309267
11.24795238,1.042672515,-9.239286423,-3.451646566
11.25272858,1.438684583,-9.600004196,-2.709273338
11.25750478,1.810768485,-10.11505985,-1.966900229
11.26228098,2.130808592,-10.64447117,-1.301097274
11.26704389,2.420938253,-11.09252739,-0.7980063558
11.27183337,2.714657307,-11.3760767,-0.3583251834
11.27660957,2.97427845,-11.44786167,0.07298108935
11.28137249,3.152543783,-11.33659554,0.5324030519
11.28616197,3.206980467,-11.11525917,1.016351461
11.29093816,3.156731367,-10.81675434,1.467996716
11.29570108,3.115455151,-10.62891865,1.798804402
11.30049061,3.049652576,-10.5475626,2.01475668
11.30526676,2.907279491,-10.53320503,2.059023857
11.31002967,2.825923443,-10.60558796,1.963310957
11.31481921,2.744567633,-10.67318535,1.819741607
11.3195954,2.529811859,-10.64028454,1.739582062
11.3243716,2.553141832,-10.77488041,1.547558069
11.3291478,2.466402054,-10.87597752,1.360917926
11.333924,2.347957134,-11.01655579,1.361516118
11.3387002,2.229512453,-11.16132164,1.400997639
11.34347639,2.183450699,-11.31565857,1.554736495
11.34825259,2.071586132,-11.51366425,1.800000787
11.35302879,1.926820397,-11.79781246,2.103291035
11.35780499,1.825125456,-12.12622738,2.47358036
11.36258119,1.538584948,-12.4498558,2.791825771
11.36734405,0.9308080077,-12.71605778,2.915654421
11.37213358,0.3846462369,-13.00678539,2.928216696
11.37690978,-0.1244267747,-13.26341629,2.787040234
11.38167264,-0.4731806815,-13.4907341,2.434098721
11.38646217,-0.5431707501,-13.73599815,1.747956991
11.39123837,-0.1154536903,-13.93161201,0.8147560954
11.39600124,0.6741777658,-14.19422436,-0.1585244983
11.40079077,1.574477315,-14.61117363,-1.064806104
11.40556697,2.184048891,-15.06700611,-1.902892232
11.41032983,2.194816589,-15.47139263,-2.723032236
11.41511936,1.800599098,-15.75135326,-3.522833109
11.41989556,1.274178028,-15.87278938,-4.191627026
11.42465842,0.8045865893,-15.80160236,-4.635495663
11.42944796,0.560518682,-15.56590939,-4.754538536
11.43422415,0.6167500615,-15.11246967,-4.630111694
11.43898707,0.7776673436,-14.42872047,-4.372285366
11.44377655,0.7106683254,-13.67737389,-4.060619831
11.44855275,0.5856433511,-12.93559933,-3.935595036
11.45331566,0.4779663086,-12.14596748,-3.988237143
11.45810514,0.2895315289,-11.33181,-4.05523634
11.46288134,0.09631111473,-10.58046341,-4.159922123
11.46764426,-0.01495514158,-9.945169449,-4.030709743
11.47243374,0.03409772366,-9.439086914,-3.618546009
11.47720994,0.2021935135,-9.068199158,-3.101098061
11.48197285,0.1339980662,-8.765507698,-2.458027124
11.48676233,-0.109471634,-8.486743927,-1.612164259
11.49153853,-0.433100909,-8.251648903,-0.6987041831
11.49630144,-0.717248559,-8.07936573,0.3631108403
11.50109092,-0.9589236975,-7.926823139,1.371685624
11.50586712,-0.9828519225,-7.941180229,2.105684042
11.51063004,-1.000199914,-8.153543472,2.279761791
11.51541952,-0.9996016622,-8.68774128,2.11645174
11.52019572,-1.098903775,-9.43489933,1.81495595
11.52495863,-1.469193101,-10.12463093,1.630110383
11.52974811,-2.047059774,-10.71864891,1.619342685
11.53452431,-2.721835852,-11.19242764,1.589432478
11.53928723,-3.421138287,-11.59382439,1.401595831
11.54407676,-3.978665829,-11.96112251,1.078564763
11.5488529,-4.532604218,-12.34337521,0.5682953596
11.55361582,-4.805984497,-12.46899891,0.09451649338
11.55840535,-4.880760193,-12.34337521,-0.404387027
11.56318155,-5.047060966,-12.24227905,-1.118046403
11.56794441,-5.18046093,-12.22313595,-1.928615093
11.57273395,-5.304289818,-12.2614212,-2.758326292
11.57751014,-5.151148796,-12.38584805,-3.483949661
11.58227301,-4.815555573,-12.55394363,-3.864408493
11.58706254,-4.391427994,-12.75972652,-3.919443607
11.59183874,-3.713062525,-12.83031464,-3.428316593
11.5966016,-2.588435888,-12.81356525,-3.108276606
11.60139113,-1.507478237,-12.5940237,-2.902493954
11.60616733,-0.626919508,-12.12981606,-2.600399971
11.6109302,0.1639083475,-11.64586735,-2.196611166
11.61571973,0.390030086,-11.22233772,-1.526620865
11.62049592,0.471386075,-11.03928757,-0.6011967063
11.62525879,0.4534398913,-10.93878841,0.4594219327
11.63004832,1.271187067,-10.91785145,1.890329838
11.63482452,3.322434187,-10.85025406,2.930609465
11.63958738,4.835894585,-10.49013424,2.404188633
11.64437691,5.21695137,-10.18086243,1.043270707
11.64915311,4.959125042,-10.06540871,0.1764706671
11.65391598,4.80897522,-10.04148006,-0.2931207716
11.65870551,4.659423828,-9.906884193,-0.5371887088
11.6634817,4.267001152,-9.512067795,-0.6119644046
11.66824457,3.589832067,-8.974281311,-0.7100701332
11.6730341,2.80259347,-8.368897438,-0.7106683254
11.6778103,1.816750646,-7.68275547,-0.500099957
11.68257322,1.012163997,-7.048657417,-0.1746760458
11.6873627,0.4785645306,-6.453442574,-0.02333002165
11.69213889,0.1884347796,-6.000600815,0.1459621787
11.69690181,0.1220339537,-5.630311489,0.352343142
11.70169129,0.1836491376,-5.263611794,0.5288137794
11.70646749,0.3637090325,-4.95015192,0.6000002623
11.7112304,0.4528416991,-4.680361271,0.5748756528
11.71601988,0.37986058,-4.435096741,0.4408775866
11.72079608,0.2973082066,-4.213760853,0.2303091735
11.725559,0.209371984,-4.030111313,-0.02333002165
11.73034848,0.1124626622,-3.861417532,-0.2494517565
11.73512467,0.005383851007,-3.712464333,-0.4456632137
11.73988759,-0.1196411327,-3.587439299,-0.5934200287
11.74467707,-0.2769692242,-3.477369547,-0.6837490797
11.74945327,-0.4247260094,-3.395415306,-0.7022934556
11.75421618,-0.6149554253,-3.333201885,-0.6729813814
11.75900566,-0.8051848412,-3.31465745,-0.6239284873
11.76378186,-0.94277215,-3.329612732,-0.5700899959
11.76855811,-1.061216831,-3.378067255,-0.4929214716
11.77333426,-1.160519004,-3.445664644,-0.4157529473
11.77811051,-1.217348576,-3.532404423,-0.3672982752
11.78288671,-1.216152072,-3.614358664,-0.2859423161
11.7876629,-1.225125194,-3.696312666,-0.1609173268
11.7924391,-1.204187989,-3.763910055,0.03649054468
11.7972153,-1.150349498,-3.816552162,0.2805584669
11.8019915,-1.105484009,-3.888935089,0.4677968323
11.8067677,-1.104287624,-3.961317778,0.6352944374
11.81154389,-1.165902853,-4.038486481,0.745962441
11.81632009,-1.265803218,-4.149752617,0.70348984
11.82109629,-1.341775298,-4.338187218,0.5796613097
11.82587249,-1.361516118,-4.554738045,0.3684946895
11.83064868,-1.275972724,-4.79521656,0.2003988922
11.83542488,-1.028315544,-5.035097122,0.03649054468
11.84020108,-0.7387840152,-5.284548759,-0.1764706671
11.84497728,-0.5258227587,-5.559125423,-0.4175475538
11.84975348,-0.4307080805,-5.876772404,-0.6287141442
11.85451634,-0.4450650215,-6.242874146,-0.8344969153
11.85930587,-0.4588237405,-6.695715904,-1.03549397
11.86408207,-0.5724828243,-7.230511665,-1.241874933
11.86884499,-0.8823533654,-7.886743546,-1.628315806
11.87363447,-1.283749342,-8.522636414,-2.277967215
11.87841066,-1.250249863,-9.250054359,-3.381058455
11.88317358,-0.9948160052,-10.10608673,-4.927420139
