Time (s),X (m/s^2),Y (m/s^2),Z (m/s^2)
10.00954713,0.2719844055,-9.105864258,-1.16772171
10.01947513,0.1261875916,-9.373956757,-1.84177002
10.02940213,0.2460882568,-9.713899841,-2.696642303
10.03932913,0.5240602112,-10.09455826,-3.357817383
10.04925712,0.9222322083,-10.4948259,-3.56408844
10.05918413,1.370549927,-10.78971268,-3.398233337
10.06911213,1.744023285,-10.88431595,-3.077600098
10.07903913,1.861379242,-10.57416092,-2.616558838
10.08896713,1.601369934,-9.777068481,-2.26883194
10.09889412,0.9289682007,-9.103768616,-2.005978546
10.10882113,0.04745132446,-8.976383514,-2.097588043
10.11874913,-0.9415420532,-9.07981842,-2.444117432
10.12867613,-1.860331421,-9.231303406,-3.028951263
10.13860413,-2.555635529,-9.444160767,-3.591780853
10.14853112,-2.827919312,-9.592651978,-3.714525604
10.15845913,-2.475402374,-9.702972565,-3.551813965
10.16838613,-1.563348999,-9.505682831,-3.594624939
10.17831412,-0.6011499023,-9.050479431,-3.720064087
10.18824113,0.1678010559,-8.570577393,-3.785777435
10.19816812,0.680634613,-8.310867462,-3.933520203
10.20809613,1.086740112,-8.374634857,-3.603007507
10.21802313,1.406026154,-8.694220276,-3.284918976
10.22795112,1.593735809,-9.103469238,-3.145858154
10.23787813,1.523831177,-9.570947113,-3.145109711
10.24780513,1.261426849,-9.933044128,-3.006048889
10.25773313,1.079555054,-10.07300308,-2.750230865
10.26766013,1.041833496,-9.978399811,-2.412533112
10.27758812,1.07057373,-9.673483887,-1.653910675
10.28751513,0.9886940002,-9.260193329,-0.9726773071
10.29744313,0.6894662476,-8.786278839,-0.6756948853
10.30737013,0.1604663086,-8.333919525,-0.7116201782
10.31729813,-0.3450325012,-8.020471344,-1.037193146
10.32722513,-0.2279759216,-7.844437408,-0.8981323242
10.33715213,-0.1445993042,-7.867489471,-1.476230164
10.34708013,-0.2420466614,-8.174051971,-2.076781311
10.35700712,-0.1474433899,-8.732540588,-1.824406128
10.36693513,0.2423460388,-9.753267975,-1.608255615
10.37686213,0.9392967224,-10.93595856,-1.375040588
10.38679013,1.834435272,-11.8046022,-1.426234131
10.39671713,2.075883179,-12.1165535,-2.620600433
10.40664412,1.966610413,-12.0833226,-3.3323703
10.41657213,1.838027802,-11.96506851,-3.529061279
10.42649913,0.94543396,-11.76059372,-3.954476624
10.43642712,-0.8933422852,-11.19102814,-4.718487854
10.44635413,-2.662064209,-10.98954712,-5.000501404
10.45628213,-3.831133118,-11.37933655,-4.398004303
10.46620913,-4.376449127,-11.72362061,-3.738625488
10.47613613,-4.177063751,-11.62213165,-3.748055878
10.48606412,-3.529660034,-10.92503128,-4.54350174
10.49599113,-2.884202271,-9.821526031,-5.576952667
10.50591913,-1.990859985,-8.762628021,-6.375242615
10.51584613,-1.159937897,-8.42343338,-6.195316772
10.52577413,-0.4761598206,-8.567733307,-5.365741882
10.53570112,-0.1196012878,-8.838071136,-4.606969757
10.54562913,0.07873626709,-9.074429626,-4.042343903
10.55555613,0.01466949463,-8.96515686,-3.753744049
10.56548313,-0.04311035156,-8.629255371,-3.465593262
10.57541113,-0.3382965088,-7.979905701,-3.416495361
10.58533812,-0.242795105,-7.381450195,-3.566184082
10.59526613,-0.2857557678,-6.961423645,-3.913312225
10.60519313,-0.3772155762,-6.473887482,-4.108506317
10.61512112,-0.3568579102,-6.091881866,-4.297263794
10.62504813,-0.2047741699,-5.845643921,-4.296964417
10.63497512,0.08846603394,-5.668711853,-4.21583313
10.64490313,0.3954776001,-5.65853302,-4.210743713
10.65483013,0.8520281982,-5.769602051,-4.287983093
10.66475812,1.466051331,-6.18738327,-4.347409515
10.67468513,1.95643158,-6.806645508,-4.192781067
10.68461313,2.316283264,-7.522606659,-3.672313385
10.69454013,2.52270401,-8.155640259,-3.204685822
10.70446713,2.438279572,-8.50067276,-3.006198578
10.71439513,2.097737732,-8.580007782,-2.661615143
10.72432213,1.558708649,-8.492140503,-2.445764008
10.73425013,0.9839039612,-8.270301819,-2.471809845
10.74417712,0.4999603271,-8.127349091,-2.703078918
10.75410513,0.133971405,-8.118816833,-2.999911652
10.76403213,-0.07469467163,-8.247998199,-3.234324188
10.77395938,-0.1294807434,-8.471782837,-3.442541199
10.78388738,-0.08996292114,-8.720266113,-3.676953735
10.79381437,-0.09565109253,-9.008117523,-4.054169312
10.80374238,-0.1438508606,-9.242829437,-4.498744812
10.81366938,-0.2121089172,-9.428144073,-4.824168091
10.82359737,-0.3356021118,-9.520202637,-5.172044678
10.83352438,-0.3326083374,-9.625433807,-5.092410278
10.84345137,-0.2130070496,-9.628577271,-4.920567627
10.85337938,-0.1642085266,-9.617799683,-4.953499146
10.86330638,-0.1983375549,-9.674980774,-4.606071625
10.87323437,-0.2850073242,-9.768087158,-4.196822662
10.88316138,-0.3830534363,-9.819280701,-3.675756226
10.89308938,-0.6098318481,-9.872270508,-3.405418396
10.90301638,-1.043330383,-9.858199768,-3.375480652
10.91294338,-1.482217712,-9.470356293,-3.375630341
10.92287137,-1.971999207,-8.805289307,-3.403173065
10.93279838,-2.294728088,-7.954608307,-3.213218079
10.94272638,-2.415377197,-7.226672058,-2.904260559
10.95265338,-2.348166962,-6.879094849,-2.310595093
10.96258138,-2.024090881,-6.828500061,-1.748364258
10.97250837,-1.487606506,-7.16679657,-1.629511414
10.98243538,-0.813558197,-7.932304688,-1.755699005
10.99236338,-0.09445358276,-8.5439328,-2.156864777
11.00229038,0.1588197327,-9.281598816,-2.486179962
11.01221838,0.1579216003,-10.15024246,-2.832709351
11.02214538,-0.2790197754,-10.62310913,-2.965183868
11.03207338,-0.9460327148,-10.70588699,-3.180885315
11.04200038,-1.287472687,-10.52581146,-3.154989166
11.05192737,-1.257085876,-10.47641418,-3.204985199
11.06185538,-0.6791377258,-10.56892181,-3.15573761
11.07178238,0.4966671753,-10.82429077,-3.206781464
11.08171038,1.484612732,-11.33398087,-3.007396088
11.09163738,1.952090607,-11.81987045,-2.347867584
11.10156538,1.685944061,-12.07853256,-2.069446564
11.11149238,0.6661148071,-11.75236084,-2.297572174
11.12141938,-0.4772076416,-11.06693619,-2.706970825
11.13134737,-1.354383545,-10.48898804,-3.21890625
11.14127438,-1.9282901,-10.16281631,-3.648812256
11.15120238,-2.000589752,-9.772428131,-3.8764888
11.16112938,-1.656455383,-9.187145233,-3.835474091
11.17105738,-1.139280853,-8.711135101,-3.836372223
11.18098437,-0.5128335571,-8.54752533,-3.822002106
11.19091238,0.05164260864,-8.718619537,-3.826941833
11.20083938,0.4161346436,-9.163195038,-4.144132233
11.21076638,0.4758604431,-9.639055481,-4.328848114
11.22069438,0.0520916748,-9.795480194,-3.779789886
11.23062137,-0.403560791,-9.522298279,-2.872676239
11.24054938,-0.7521858215,-9.149273987,-2.188598785
11.25047638,-1.086440735,-8.889863434,-1.91661438
11.26040437,-1.089584198,-8.614585876,-1.717079315
11.27033138,-0.9307644653,-8.386609955,-1.576970673
11.28025837,-0.6143225098,-8.481811981,-1.727707214
11.29018638,-0.2287243652,-8.951385498,-2.039359131
11.30011338,-0.08158035278,-9.417366486,-2.606679382
11.31004137,-0.326920166,-9.660460968,-2.935395813
11.31996838,-0.5574407959,-9.464368744,-3.124302979
11.32989638,-0.975970459,-8.952433319,-3.341950378
11.33982338,-1.213975525,-8.457263031,-3.323987732
11.34975138,-0.7788304138,-8.614735565,-3.06098465
11.35967837,0.05987548828,-9.110803986,-2.647394714
11.36960538,0.7033872986,-9.50463501,-2.203567657
11.37953338,0.9349557495,-9.56196579,-2.035018158
11.38946038,0.5237608337,-9.467512207,-2.007026367
11.39938838,-0.2165995789,-9.424252167,-1.785187683
11.40931538,-0.8297245789,-9.565258942,-1.578916626
11.41924338,-1.117575989,-9.855804749,-1.415306854
11.42917038,-1.154549103,-9.99366806,-1.514400787
11.43909738,-1.153201904,-10.06432114,-1.44734024
11.44902538,-1.197958832,-10.2068248,-1.393452301
11.45895238,-1.312321014,-10.45470932,-1.338217163
11.46888038,-1.437610474,-10.61981598,-1.546434174
11.47880738,-1.514400787,-10.61577438,-1.851200409
11.48873538,-1.528621216,-10.46488815,-1.821412354
11.49866238,-1.141226807,-10.20128632,-1.640588379
11.50858938,-0.6480024719,-9.817185059,-1.785636749
11.51851737,-0.4569996643,-9.142987061,-1.681603088
11.52844438,-0.7024891663,-8.683891754,-1.520538025
11.53837238,-1.331032104,-8.611143036,-1.450334015
11.54829938,-1.936672668,-9.211843872,-1.589394836
11.55822738,-2.360591125,-10.42641815,-1.812580719
11.56815437,-2.641407166,-11.84816162,-1.828747101
11.57808138,-2.930007019,-12.31354385,-1.829046478
11.58800938,-3.608096924,-11.82031952,-1.964065704
11.59793638,-4.241729279,-11.05600891,-2.059567108
11.60786438,-3.906127167,-10.43749512,-1.605112152
11.61779137,-2.89363266,-9.585915985,-1.541195068
11.62771938,-2.47121109,-8.64572113,-2.015259247
11.63764638,-2.41388031,-8.351133728,-2.393223267
11.64757437,-2.094145203,-8.880133667,-2.605930939
11.65750138,-1.692979431,-9.610315247,-2.408940582
11.66742837,-1.536405029,-9.803264008,-2.17871933
11.67735638,-1.134341125,-9.967173157,-2.037562866
11.68728338,-0.8231382751,-9.62049408,-2.378703461
11.69721137,-0.9108558655,-9.104067993,-2.429747314
11.70713838,-0.9976753235,-8.822204132,-2.569855957
11.71706638,-1.212628326,-9.165889435,-2.558479614
11.72699338,-1.293460236,-9.709858246,-2.373164978
11.73692038,-1.208137665,-10.03513184,-2.231559448
11.74684837,-1.132544861,-9.653126221,-2.295626221
11.75677538,-1.175655212,-8.854536896,-2.668051758
11.76669888,-1.445394287,-8.215665436,-3.134781189
11.77662587,-1.532662811,-8.191266174,-3.01996994
11.78655388,-0.7741900635,-8.52522171,-2.550546112
11.79648088,0.228874054,-8.625363464,-2.258353729
11.80640887,0.7283853149,-8.454269257,-2.352957001
11.81633588,0.4478686523,-8.120014343,-2.962190094
11.82626287,-0.2811154175,-7.989785156,-3.36754715
11.83619088,-0.4098477173,-8.39768692,-2.715054016
11.84611788,-0.01706451416,-8.880133667,-2.006128235
11.85604587,-0.1779798889,-9.105864258,-1.911075897
11.86597288,-0.2957849121,-9.554032288,-1.746118927
11.87590088,-0.1794767761,-9.769134979,-2.042203217
11.88582788,-0.6661148071,-9.915380859,-2.997666321
11.89575488,-1.779798889,-10.31415161,-3.908821564
11.90568287,-2.75786499,-10.77833633,-4.120032349
11.91560988,-2.804867249,-10.99089432,-3.822002106
11.92553788,-2.393372955,-10.73866882,-3.412753143
11.93546488,-1.733395386,-10.12644196,-3.011287994
11.94539288,-0.5237608337,-9.444460144,-2.502645721
11.95531987,0.8592132568,-8.97338974,-2.440375214
11.96524688,1.560355225,-8.257428589,-2.932551727
11.97517488,1.683099976,-7.777376862,-2.516267395
11.98510188,1.831441498,-8.217162323,-1.34914444
11.99502988,1.549128571,-8.411158905,-1.314416656
12.00495688,0.5149291992,-7.799979858,-2.243534546
12.01488488,-0.433049469,-8.175997925,-2.32032486
12.02481188,-0.9937834167,-9.405541077,-2.43962677
12.03473988,-1.711690521,-10.52745804,-2.744842072
12.04466688,-2.364632721,-11.49025589,-2.644999695
12.05459388,-2.661315765,-11.62707138,-2.6502388
12.06452187,-2.321971436,-10.67205734,-2.416574707
12.07444888,-1.22385498,-9.465865631,-2.212249603
12.08437688,-0.1014889526,-8.709937592,-2.241139526
12.09430388,0.6973997498,-8.196056213,-2.468666382
12.10423188,1.247505798,-8.078400879,-2.814447327
12.11415887,1.620081024,-8.246201935,-2.914589081
12.12408588,1.56439682,-8.597371674,-2.957699432
12.13401388,0.9331594849,-9.119785309,-2.991978149
12.14394088,-0.001496887207,-9.619446259,-2.845881958
12.15386888,-0.7749385071,-9.903106384,-2.675536194
12.16379587,-1.274449768,-10.07315277,-2.230960693
12.17372388,-1.124611359,-10.15623001,-1.78084671
12.18365088,-0.6638694763,-10.14679962,-1.600172424
12.19357788,-0.3742218018,-10.01716919,-1.415606232
12.20350588,-0.1501377869,-9.663005676,-1.080303497
12.21343287,-0.08906478882,-9.259893951,-0.8940907288
12.22336088,-0.1625619507,-9.125174103,-1.044677582
12.23328788,-0.1365161133,-9.304800568,-1.53984787
12.24321587,0.07454498291,-9.59819046,-2.20207077
12.25314288,0.3457809448,-9.8697258,-2.42675354
12.26306987,0.3043171692,-10.21056702,-2.296524353
12.27299788,0.04206253052,-10.60020676,-2.110161896
12.28292488,-0.1600172424,-11.04208786,-2.059567108
12.29285287,-0.15328125,-11.25105331,-2.575244751
12.30277988,-0.1336720276,-11.1769574,-3.356170807
12.31270788,-0.4050576782,-10.82204544,-3.792663116
12.32263488,-0.8665480042,-10.35172348,-3.797602844
12.33256288,-1.315763855,-10.08827133,-3.445235596
12.34248987,-1.275946655,-9.774673462,-2.706072693
12.35241688,-0.9967771912,-9.358089752,-2.253414001
12.36234488,-0.6381230164,-8.93357254,-2.149080963
12.37227188,-0.4656816101,-8.672964478,-1.934577026
12.38219988,-0.00628692627,-8.348888397,-1.898801422
12.39212688,0.6292913818,-8.23153244,-2.123484192
12.40205488,1.23208786,-8.382418671,-2.304457855
12.41198188,1.774859161,-8.578959961,-2.503244476
12.42190887,1.815125427,-8.673563232,-2.692750397
12.43183688,1.598825226,-8.743168488,-2.744243317
12.44176388,1.553469543,-8.918903046,-2.726130981
12.45169188,1.570683746,-9.101074219,-2.67838028
12.46161888,1.593586121,-9.307195587,-2.615211639
12.47154688,1.595083008,-9.51870575,-2.618804169
12.48147388,1.409019928,-9.840087433,-3.000211029
12.49140188,1.230141907,-10.35067566,-3.553460541
12.50132887,1.331181793,-10.63598236,-3.68114502
12.51125588,1.308279419,-10.84075653,-3.857478333
12.52118388,1.319655762,-10.78192886,-3.874991913
12.53111088,1.258433075,-10.41444305,-3.870351563
12.54103888,0.9515711975,-9.787696381,-3.822600861
12.55096587,0.4236190796,-9.053173828,-3.216960297
12.56089388,0.02439926147,-8.648265839,-2.35071167
12.57082088,-0.2727328491,-8.765921173,-1.763482819
12.58074788,-0.2610571289,-8.973988495,-1.304088135
12.59067588,0.222437439,-9.179062042,-1.097667389
12.60060287,1.263971558,-9.59474762,-1.249900818
12.61053088,2.191891937,-10.17239639,-1.64867157
12.62045788,2.610122223,-10.77773758,-2.268981628
12.63038587,2.722089386,-11.32978958,-2.975961456
12.64031288,2.787503357,-11.62108383,-3.447929993
12.65023987,2.584226074,-11.92644882,-3.628005524
12.66016788,2.123334503,-12.06506058,-3.61094101
12.67009488,1.576371918,-12.02718933,-3.542832642
12.68002287,1.073268127,-11.73918823,-3.411256256
12.68994988,0.6936575317,-11.22500748,-3.329825592
12.69987788,0.4296066284,-10.42162811,-3.471431122
12.70980488,0.2354603577,-9.529034271,-3.444487152
12.71973188,0.2915936279,-8.82010849,-3.112776947
12.72965987,0.3911366272,-8.418493652,-2.660267944
12.73958688,0.8831634521,-8.251890106,-2.356100464
12.74951488,1.476529541,-8.114026794,-2.298619995
12.75944188,2.063608704,-7.994874573,-2.463726654
12.76936975,2.852468262,-7.941286011,-2.731070709
12.77929675,3.413052521,-8.05130722,-3.045566711
12.78922475,3.812871094,-8.143365784,-3.229234772
12.79915175,4.152065735,-8.129295044,-3.119363251
12.80907875,4.364623718,-8.099656677,-2.832260284
12.81900675,4.451143799,-8.127049713,-2.605032806
12.82893375,4.457730103,-8.158484344,-2.447260895
12.83886175,4.384981384,-8.123157806,-2.362686768
12.84878875,4.065545654,-8.096812592,-2.286644897
12.85871675,3.779191132,-8.043373718,-2.264490967
12.86864375,3.773652649,-7.92616745,-2.45369751
12.87857075,3.740421753,-7.92736496,-2.577939148
12.88849875,3.725153503,-7.885901184,-2.614463196
12.89842575,3.796704712,-7.815996552,-2.525248718
12.90835375,3.864364014,-7.778873749,-2.486329651
12.91828075,3.992497559,-7.751031647,-2.328408051
12.92820875,4.030817871,-7.7529776,-2.290686493
12.93813575,3.937711487,-7.823780365,-2.308499451
12.94806375,3.885919189,-7.832612,-2.368674316
12.95799075,4.004472656,-7.83844986,-2.448458405
12.96791775,4.221221924,-7.82901947,-2.517913971
12.97784575,4.38782547,-7.915240173,-2.536625061
12.98777275,4.440366211,-8.120313721,-2.766397247
12.99770075,4.436474304,-8.406817932,-2.932851105
13.00762775,4.493505707,-8.605903931,-3.031945038
13.01755475,4.565805359,-8.590485992,-2.897225189
13.02748275,4.679269409,-8.321046295,-2.74035141
13.03740975,4.788093109,-8.107590179,-2.745889893
13.04733775,4.9540979,-7.945776672,-2.760559387
13.05726475,5.125042419,-7.846533051,-2.699785767
13.06719275,5.366640015,-7.85476593,-2.633174286
13.07711975,5.585335236,-7.985743561,-2.524799652
13.08704775,5.741310883,-8.258027344,-2.325414276
13.09697475,5.708978119,-8.515491943,-2.201472015
13.10690175,5.469625854,-8.727451172,-2.046544189
13.11682975,5.264103241,-8.841064911,-1.961970062
13.12675675,5.009033661,-8.756640472,-2.183659058
13.13668475,4.392016754,-8.505911865,-2.356100464
13.14661175,4.16553772,-8.07361084,-2.611020355
13.15653975,4.098327484,-7.813900909,-2.545756073
13.16646675,4.216282196,-7.775879974,-2.370470581
13.17639375,4.383783875,-7.802374878,-2.367626495
13.18632175,4.321663055,-7.846383362,-2.500250702
13.19624875,4.346960449,-7.685767365,-2.138752441
13.20617675,4.523443451,-7.601492615,-2.078727264
13.21610375,4.746329956,-7.516170044,-2.205812988
13.22603175,4.97280899,-7.516170044,-2.087109833
13.23595875,5.108277283,-7.744894409,-2.019450531
13.24588675,5.159021759,-7.911797333,-2.095791779
13.25581375,4.763993225,-7.991282043,-2.224673767
13.26574075,4.348906403,-8.074359283,-2.32257019
13.27566875,4.125421143,-8.033943329,-2.261347504
13.28559575,4.358187103,-7.858358459,-2.106719055
13.29552375,4.580624542,-7.741601257,-2.111658783
13.30545075,4.663103027,-7.622449036,-2.234104156
13.31537875,4.864883423,-7.336543579,-2.276615753
13.32530575,4.992268524,-7.056026917,-2.298919373
13.33523275,5.294939117,-6.941365356,-2.222578125
13.34516075,5.696104889,-6.882388,-2.070793762
13.35508775,6.176455994,-6.79467041,-2.149230652
13.36501575,7.076085205,-6.855294342,-2.330054626
13.37494275,7.60553421,-7.194039917,-2.241438904
13.38487075,7.858508148,-7.824528809,-1.971999207
13.39479775,7.643255768,-8.463549957,-2.035616913
13.40472475,6.968459015,-8.98506546,-2.284698944
13.41465275,6.111191711,-8.957822113,-2.407443695
13.42457975,5.55674469,-8.294102325,-2.525997162
13.43450775,5.407654724,-7.613018646,-2.894680481
13.44443475,5.177283783,-7.214996338,-3.363804932
13.45436275,4.924160156,-6.973997498,-3.477418671
13.46428975,4.833748169,-6.869814148,-3.269501038
13.47421775,4.830604706,-6.852150879,-3.031945038
13.48414475,4.785997467,-6.827901306,-2.825374603
13.49407175,4.768633575,-6.857389984,-2.618953857
13.50399975,4.823868713,-6.958130493,-2.471959534
13.51392675,5.163213043,-7.090904388,-2.212099915
13.52385475,5.837860107,-7.199129333,-2.085014191
13.53378175,6.587501221,-7.326065369,-2.180066528
13.54370975,7.059918823,-7.491321716,-2.387984161
13.55363675,7.202572174,-7.669600983,-2.513423309
13.56356375,7.303462372,-7.818391571,-2.446512451
13.57349175,7.456294556,-7.827971649,-2.456391907
13.58341875,7.459587708,-7.788902893,-2.707120514
13.59334675,7.160509644,-7.7529776,-2.978057098
13.60327375,6.587950287,-7.740703125,-3.088227997
13.61320175,6.046376495,-7.716303864,-2.926713867
13.62312875,5.832621002,-7.457042999,-2.799927521
13.63305575,5.804030457,-7.042105865,-2.788700867
13.64298375,5.649402008,-6.792574768,-2.870580597
13.65291075,5.347030792,-6.820865936,-2.928809509
13.66283875,5.112767944,-7.220385132,-3.028502197
13.67276575,5.006488953,-7.876620483,-3.12056076
13.68269375,4.96113327,-8.541388092,-3.141068115
13.69262075,5.001100159,-9.005273438,-3.143463135
13.70254875,4.98568222,-9.184450836,-3.269800415
13.71247575,4.962779846,-9.087602234,-3.394491119
13.72240275,4.99631012,-8.834777985,-3.334316254
13.73233075,4.987179108,-8.591384125,-3.149750061
13.74225775,5.044958954,-8.394393768,-2.982996826
13.75218575,5.232219543,-8.324788513,-2.90411087
13.76211275,5.350174255,-8.388106842,-2.791994019
13.772041,5.253924408,-8.445587311,-2.744093628
13.781968,5.003195801,-8.441545715,-2.764151917
13.791895,4.767885132,-8.294551392,-2.811603241
13.801823,4.563560028,-7.956703949,-2.897823944
13.81175,4.614753571,-7.456294556,-2.947520599
13.821678,4.94122467,-6.934479675,-3.009342041
13.831605,5.374274139,-6.622378693,-2.994672546
13.841533,5.620512085,-6.591542816,-2.934497681
13.85146,5.730383606,-6.787784729,-2.792443085
13.861387,5.795049133,-7.062463531,-2.513273621
13.871315,5.777236176,-7.162904663,-2.271825714
13.881242,5.706134033,-7.030729523,-2.219135284
13.89117,5.803282013,-6.814728699,-2.456691284
13.901097,5.965394897,-6.806795197,-2.977757721
13.911025,5.936954041,-7.103927307,-3.426225128
13.920952,5.893843689,-7.435038757,-3.627706146
