Time (s),X (m/s^2),Y (m/s^2),Z (m/s^2)
9.006873042,0.0361234864222519,0.24609908047453702,-0.15143019945239497
9.016800042,0.010472917926136171,0.14673748070364898,-0.21356918098757932
9.026728042,-0.01518245870166046,0.04985021402138687,-0.2737966801018523
9.036655042,-0.04111859855877343,-0.04333019674979233,-0.331606931747203
9.046583042,-0.06761162342025825,-0.13164611885299904,-0.38652300620740926
9.056510042,-0.09492678985978861,-0.21403439249105352,-0.4381028152273611
9.066438042,-0.12330800573343147,-0.28954423532210155,-0.48594481514008275
9.076365042,-0.15296823086344621,-0.3573531266446272,-0.529693323572641
9.086292042,-0.18408106685905326,-0.4167803750009029,-0.5690433573489485
9.096220042,-0.21677379994257928,-0.4672981228211446,-0.6037448931633583
9.106147042,-0.2511221097661275,-0.5085395929446282,-0.6336064504499291
9.116075042,-0.2871465974406983,-0.5403044323848009,-0.6584978970756734
9.126002042,-0.3248112192477687,-0.5625610578407715,-0.6783523827655504
9.135930042,-0.3640236407872506,-0.5754459551605041,-0.6931673139763339
9.145857042,-0.40463745100154686,-0.5792599301366255,-0.7030042996347295
9.155784042,-0.4464560979867872,-0.5744613485608631,-0.7079880203001809
9.165712042,-0.48923833141779766,-0.5616564398590193,-0.7083040016389732
9.175639042,-0.532704864252941,-0.5415867768018363,-0.7041953035504764
9.185567042,-0.5765459057385827,-0.5151140915921469,-0.6959581659619916
9.195494042,-0.6204291775203835,-0.48320264793654805,-0.6839366764380038
9.205422042,-0.6640080145375026,-0.4468994518758248,-0.6685165374917401
9.215349042,-0.706929178491459,-0.4073126395765434,-0.650118012681989
9.225276042,-0.7488400729753676,-0.3655884219562402,-0.6291881304628162
9.235204042,-0.7893951375840627,-0.322886998548318,-0.6061922375449953
9.245131042,-0.8282613005396633,-0.2803578885278407,-0.5816050252036605
9.255059042,-0.8651224700747149,-0.23911517503100088,-0.555901197197166
9.264986042,-0.8996831294464853,-0.2002132165194311,-0.5295459981807803
9.274914042,-0.9316711603206005,-0.16462342765095078,-0.5029858703375929
9.284841042,-0.9608400531798693,-0.1332127489276055,-0.47663954654601554
9.294768042,-0.9869706740543832,-0.10672439629594357,-0.4508899112041343
9.304696042,-1.0098727463777066,-0.08576141277532774,-0.42607695494068093
9.314623042,-1.0293861756447718,-0.07077344998055192,-0.40249211014648023
9.324551042,-1.0453822935545036,-0.062047105242402166,-0.38037418050860045
9.334478042,-1.0577650315686153,-0.05970004045955579,-0.35990697818194645
9.344406042,-1.0664719604142952,-0.06367901460556061,-0.3412186718003194
9.354333042,-1.0714750644578552,-0.07376187179450337,-0.32438274308596526
9.364260042,-1.0727810696223317,-0.08956344046996748,-0.3094203627157765
9.374188042,-1.0704311179542545,-0.11054521814953033,-0.29630393710503916
9.384115042,-1.0644995848050538,-0.13602864154888925,-0.2849615520948469
9.394043042,-1.055091868521909,-0.16521167317029378,-0.2752820462929072
9.403970042,-1.0423410483737223,-0.19718837140325965,-0.26712047820154305
9.413898042,-1.0264033989126886,-0.23097105171261864,-0.26030379427873024
9.423825042,-1.0074528550133233,-0.26551459051056964,-0.25463654637895355
9.433752042,-0.9856746252061183,-0.2997423662829192,-0.24990653822789266
9.443680042,-0.961258238830077,-0.3325732687944008,-0.24589030014092023
9.453607042,-0.9343903774531297,-0.36294913632875503,-0.24235830214670326
9.463535042,-0.9052478780813692,-0.3898619114192796,-0.23907982274104095
9.473462042,-0.8739913015945233,-0.4123797521462056,-0.23582739884526896
9.483390042,-0.8407594354045913,-0.42967131478174264,-0.23238079664683703
9.493317042,-0.805665049894625,-0.44102744826184026,-0.22853046404346436
9.503244042,-0.7687921588426186,-0.44587962050905794,-0.224080450097556
9.513172042,-0.7301949461609467,-0.4438145299635139,-0.21885080003815668
9.523099042,-0.6898984165406861,-0.43458452857016355,-0.21267945234265992
9.533027042,-0.6479007136236286,-0.4181136704896454,-0.20542367615362525
9.542954042,-0.6041769389004237,-0.3944993774789081,-0.19696109299057835
9.552882042,-0.558684209846093,-0.364009857192678,-0.1871903274973748
9.562809042,-0.511367625153512,-0.3270775160504671,-0.17603132994328097
9.572736042,-0.4621667634468666,-0.28428867688056814,-0.1634254112828391
9.582664042,-0.41102233281521244,-0.23636995375331696,-0.14933503226571684
9.592591042,-0.3578826131984961,-0.18417166461580575,-0.13374339187752424
9.602519042,-0.30270939054575924,-0.1286486871250653,-0.11665386499653059
9.612446042,-0.24548316520065563,-0.07083919120520721,-0.09808934017096273
9.622373042,-0.1862075167502237,-0.01184171479024184,-0.07809150181705772
9.632301042,-0.12491260933056067,0.04720891685042705,-0.05672008624916947
9.642228042,-0.061657910103391736,0.10516629982591011,-0.03405212121724956
9.652156042,0.0034657426857390853,0.16089724521021795,-0.01018113945209866
9.662083042,0.0703345528891889,0.21330611761480162,0.014783656464589236
9.672011042,0.13879048876077088,0.26135820040614843,0.04071830285453764
9.681938042,0.2086401637189652,0.3041016040871089,0.06748507063945536
9.691865042,0.27965376556344806,0.34068727546763455,0.09493353775246627
9.701793042,0.3515639806033497,0.3703867079894948,0.12290170078653277
9.711720042,0.4240649270185093,0.3926069977762013,0.1512170684888148
9.721648042,0.4968111831797434,0.4069029384139769,0.17969767500516373
9.731575042,0.5694170620536618,0.41298590350042663,0.20815296255269516
9.741503042,0.6414563344487707,0.4107293322924601,0.23638450729865085
9.751430042,0.7124626368810812,0.400170711320257,0.2641865920492462
9.761357042,0.7819308112654951,0.3815100319947382,0.2913466580495303
9.771289125,0.8493194120648518,0.3551047971410594,0.31764569041390606
9.781216125,0.914054583511011,0.32146174337519606,0.3428586053793502
9.791144125,0.9755354604135118,0.28122553664735306,0.3667547148382543
9.801071125,1.033141188507192,0.2351647798768951,0.38909834992148873
9.810999125,1.0862396010761601,0.18415573844025665,0.4096497366984162
9.820926125,1.1341975311603139,0.1291642362777778,0.4281662360461054
9.830853125,1.176392682063279,0.07122620049662975,0.4444040835110087
9.840781125,1.212226918723985,0.011427337120578354,0.4581207857612684
9.850708125,1.2411407734376174,-0.04911759101814528,0.46907833891874584
9.860636125,1.2626288781332218,-0.10928543727949394,0.47704742410012557
9.870563125,1.2762559427048867,-0.16796488221142536,0.4818127040999204
9.880491125,1.2816728002901028,-0.2240758134376707,0.48317929176798813
9.890418125,1.278631946433713,-0.2765875590591481,0.48098038523416803
9.900345125,1.2670019248127378,-0.324535721467204,0.4750859689033596
9.910273125,1.2467798743963037,-0.3670374253256337,0.46541236727432844
9.920200125,1.2181015648388658,-0.4033048591022786,0.4519323217193108
9.930128125,1.1812483132588896,-0.43265704819209383,0.43468515188544515
9.940055125,1.1366502905976812,-0.4545298460773886,0.4137864749332449
9.949983125,1.0848858750420753,-0.46848416886190425,0.3894368941112704
9.959910125,1.0266768743594235,-0.4742125314320577,0.36192903606430266
9.969837125,0.9628795994575974,-0.4715439720016481,0.3316523165841402
9.979765125,0.8944719140743359,-0.46044747096635685,0.29909485249850404
9.989692125,0.8225365042552808,-0.4410339694335186,0.2648420193226184
9.999620125,0.748240707843996,-0.41355706343309906,0.22957128295981322
10.00954713,0.6728133241990132,-0.3784123913205866,0.19404310451989396
10.01947513,0.5975188926609186,-0.3361356549032288,0.15908791734135155
10.02940213,0.5236299861058354,-0.28739913645240406,0.12558938532594854
10.03932913,0.4523981114325577,-0.23300651013244975,0.09446434963228903
10.04925712,0.38502384108678855,-0.17388570833148878,0.06664003603746231
10.05918413,0.3226268221063886,-0.11107959701600285,0.04302921343212055
10.06911213,0.26621632911471615,-0.045734242867075045,0.024504060579205
10.07903913,0.21666305317174653,0.02091538067162522,0.011869520357152807
10.08896713,0.17467285404107413,0.08756230479461458,0.00583691335748267
10.09889412,0.14076324776720822,0.1528470318750197,0.006998562845476991
10.10882113,0.11524344536555066,0.21537937043727348,0.015804163401828903
10.11874913,0.09819878547620099,0.27376234033930846,0.03253961130479385
10.12867613,0.08948039336979527,0.32661776402589776,0.05730900312190399
10.13860413,0.08870083116150515,0.3726131002680873,0.09002049032653665
10.14853112,0.09523636645382566,0.41048903481737054,0.13037663822921997
10.15845913,0.1082362761215017,0.4390873067313779,0.1778698642531705
10.16838613,0.12663932790901275,0.4573782127466641,0.2317834175201357
10.17831412,0.1491972665609323,0.46448719382346415,0.29119821264302287
10.18824113,0.17450480480653663,0.45971987218289506,0.3550056562890304
10.19816812,0.20103531738098074,0.44258488282064756,0.4219264163250995
10.20809613,0.22718118703040055,0.412813841895363,0.4905348868799921
10.21802313,0.2512975708261306,0.37037782414267484,0.5592889026342655
10.22795112,0.27174824571955486,0.3154997835102229,0.6265640580057984
10.23787813,0.28695214869032115,0.24866243771291613,0.6906918011031609
10.24780513,0.29542924058982933,0.1706112352760325,0.7500003087843388
10.25773313,0.29584438397963353,0.08235212001175628,0.8028570150336728
10.26766013,0.2870480225554228,-0.014856105517330158,0.8477115631302451
10.27758812,0.2681125716031865,-0.11951494082151352,0.8831378848483105
10.28751513,0.2383635666839262,-0.22990492714954341,0.9078740820267113
10.29744313,0.19740476729512518,-0.3441099484036324,0.9208588053527013
10.30737013,0.1451365721111675,-0.46004698847641085,0.921262900797349
10.31729813,0.08176726946902634,-0.5755011278626007,0.9085152299340729
10.32722513,0.007816813972507672,-0.6881654192365797,0.8823217611148922
10.33715213,-0.07588702141662344,-0.7956851075587942,0.8426772597101978
10.34708013,-0.1682201237716467,-0.895705461044465,0.7898691593256034
10.35700712,-0.26778102212990107,-0.985922266403441,0.7244734558502144
10.36693513,-0.3729171181302102,-1.0641338311996906,0.6473427193249106
10.37686213,-0.481757781482145,-1.1282931477995868,0.5595865564785368
10.38679013,-0.5922537912674551,-1.1765587296393127,0.4625450783624329
10.39671713,-0.7022224562410688,-1.2073425538290086,0.3577561375619457
10.40664412,-0.8093975783497857,-1.2193535510955462,0.2469172996154047
10.41657213,-0.9114832293583193,-1.2116351789977944,0.13184369404445614
10.42649913,-1.0062100974310513,-1.183595786648667,0.014423033093694923
10.43642712,-1.0913929475705455,-1.1350307083245998,-0.1034308259575173
10.44635413,-1.1649875543443438,-1.0661352870107734,-0.21982437238375827
10.45628213,-1.225145340044474,-0.9775083083087467,-0.3329296168222297
10.46620913,-1.270263919930497,-0.870145607150598,-0.44102666310539096
10.47613613,-1.2990318424627978,-0.7454238891331371,-0.5425425175594552
10.48606412,-1.3104660186240629,-0.6050750871357661,-0.6360851272746164
10.49599113,-1.3039406381016836,-0.45115185463094454,-0.7204717968005547
10.50591913,-1.2792067329014845,-0.28598507244162713,-0.7947512933637475
10.51584613,-1.2364019296398336,-0.11213449576219002,-0.8582191264756596
10.52577413,-1.1760502959206132,0.06766613124246677,-0.9104256954726525
10.53570112,-1.0990525100568656,0.2505680304771312,-0.9511772418408057
10.54562913,-1.0066668536218193,0.43366887977279855,-0.9805298049181711
10.55555613,-0.9004817391803553,0.6140752782720391,-0.9987766289441025
10.56548313,-0.7823806456866641,0.7889646322864977,-1.006429678013773
10.57541113,-0.6545004516414332,0.9556449283483052,-1.0041960687324578
10.58533812,-0.5191842431496287,1.111610899976859,-0.9929503278964789
10.59526613,-0.37892974091732406,1.254595161693114,-0.9737034320344068
10.60519313,-0.2363345436230093,1.3826129896325638,-0.9475695978342036
10.61512112,-0.09403942722123858,1.493999580605193,-0.915731779087446
10.62504813,0.04532903022819848,1.5874388218011302,-0.8794067977051901
10.63497512,0.17921521246339836,1.6619828469265592,-0.8398110009645212
10.64490313,0.305189332138244,1.7170619332754116,-0.798127296669923
10.65483013,0.42099913646919085,1.7524845977638814,-0.7554743705196378
10.66475812,0.5246172341304116,1.768428065996658,-0.7128788326204889
10.67468513,0.6142829064631866,1.7654196029615534,-0.6712509713267202
10.68461313,0.6885373849144921,1.7443094912541532,-0.6313647130579494
10.69454013,0.7462517375663204,1.7062367057538013,-0.5938422969527583
10.70446713,0.786646710359052,1.6525885457287721,-0.5591440704196726
10.71439513,0.8093041071605095,1.5849556336578323,-0.5275636900949942
10.72432213,0.814169555310735,1.505083769486093,-0.499228867690049
10.73425013,0.8015467732469821,1.4148241437339024,-0.47410763198579
10.74417712,0.7720837156049754,1.3160833744791265,-0.45201989231134115
10.75410513,0.7267512011377417,1.2107747564950986,-0.4326538942328743
10.76403213,0.6668148168006942,1.100772008948243,-0.41558696660973493
10.77395938,0.5938010311905474,0.9878666895084283,-0.4003097841522963
10.78388738,0.5094585428720254,0.8737303104252396,-0.3862532236494093
10.79381437,0.41571593980263943,0.7598820449495194,-0.37281678383921024
10.80374238,0.3146367634689034,0.6476627479899448,-0.3593974731967786
10.81366938,0.20837306375619732,0.5382158317386503,-0.34541804950954724
10.82359737,0.09911850404505475,0.43247533617817174,-0.3303535226236833
10.83352438,-0.010937966250713067,0.3311613195471439,-0.31375490906049386
10.84345137,-0.11965691116744048,0.2347824709947069,-0.2952693531709344
10.85337938,-0.22499078886405974,0.1436456243313544,-0.27465589787295547
10.86330638,-0.32502310255076095,0.05787163601984653,-0.25179638752885525
10.87323437,-0.4180035967959889,-0.022583110031156917,-0.22670120245867725
10.88316138,-0.5023788631920919,-0.09790048727877607,-0.19950974567516758
10.89308938,-0.5768178100619322,-0.16837077012386253,-0.17048581537165497
10.90301638,-0.6402315448355128,-0.23436032902154338,-0.14000818978104104
10.91294338,-0.6917873177745583,-0.2962781620057856,-0.10855691497894623
10.92287137,-0.7309162858681345,-0.35454260487592937,-0.07669591736340858
10.93279838,-0.7573149808265459,-0.4095495791310487,-0.04505266324611315
10.94272638,-0.7709405093309462,-0.4616437036775461,-0.014295662987904021
10.95265338,-0.771999677961321,-0.5110935017765428,0.014889331102122393
10.96258138,-0.7609324152110392,-0.55807176963214,0.0418235576069052
10.97250837,-0.738390048864038,-0.6026419370736925,0.06585903977929998
10.98243538,-0.7052091746766732,-0.6447509555403744,0.08640111528042439
10.99236338,-0.6623820055499363,-0.6842289163250773,0.10292896340198003
11.00229038,-0.6110242033280022,-0.7207952611213557,0.11501351321907449
11.01221838,-0.5523412556482539,-0.7540711258432268,0.12233225898967481
11.02214538,-0.4875944628972215,-0.7835970810162841,0.12468065569894363
11.03207338,-0.41806755063748063,-0.808855313825313,0.12197990415255054
11.04200038,-0.3450348360971517,-0.829295146034813,0.11428105411467193
11.05192737,-0.2697317737375864,-0.84436069744913,0.1017654541159667
11.06185538,-0.19332860209372954,-0.8535194768890342,0.08474165963254417
11.07178238,-0.11690771929002719,-0.8562906985956594,0.0636389806134647
11.08171038,-0.04144532124471821,-0.8522721715434605,0.038997908057290705
11.09163738,0.03220227314469975,-0.8411646896452324,0.011457710226637706
11.10156538,0.1033073314207015,-0.822792965665381,-0.018258464752709633
11.11149238,0.17127436510870375,-0.7971223057956021,-0.04936059667657836
11.12141938,0.23563887785795662,-0.7642704161131786,-0.0810104756613112
11.13134737,0.2960615846657775,-0.724513958256954,-0.11234156397969612
11.14127438,0.3523186926941594,-0.6782897113455034,-0.14247948438725586
11.15120238,0.40428898445818434,-0.6261904276503673,-0.17056254082407973
11.16112938,0.45193851917567385,-0.5689556722513027,-0.19576166625793853
11.17105738,0.495303771237635,-0.5074581020987795,-0.21729921719462497
11.18098437,0.5344739737759603,-0.44268576422211586,-0.23446609224299528
11.19091238,0.5695733543630536,-0.37572107500840296,-0.24663673470874012
11.20083938,0.6007438622263391,-0.30771718356993255,-0.25328167717785455
11.21076638,0.6281289089817579,-0.23987242888057494,-0.25397739289791565
11.22069438,0.6518585858768294,-0.17340358570089123,-0.24841333179968988
11.23062137,0.6720367785268911,-0.10951857355958515,-0.23639613710653154
11.24054938,0.68873056546107,-0.04938928661711022,-0.21785115674893402
11.25047638,0.7019622451419395,0.00587480931105398,-0.1928214694112072
11.26040437,0.7117042744882038,0.055251681483222924,-0.16146472065341225
11.27033138,0.7178773140519458,0.09782973595007344,-0.12404809821953464
11.28025837,0.7203514632047596,0.13282827673799147,-0.08094176738880592
11.29018638,0.7189506423416471,0.15961494843354868,-0.03261104672018925
11.30011338,0.713459951483217,0.1777197890159749,0.020392454949277047
11.31004137,0.703635718973493,0.18684562612927316,0.07744058402202698
11.31996838,0.6892178591834918,0.18687465274719248,0.137839169907397
11.32989638,0.6699440858470823,0.17787110682744806,0.20083927031768056
11.33982338,0.6455654723951539,0.16008005216549323,0.26564907813083616
11.34975138,0.6158628040305023,0.1339223223717853,0.3314464161939472
11.35967837,0.5806631230878221,0.09998575915334652,0.3973917079279294
11.36960538,0.5398558326105624,0.0590129569767831,0.46264126114118764
11.37953338,0.4934077059293808,0.01188581422247045,0.5263606511799808
11.38946038,0.4413761693977461,-0.04039272690964323,0.5877379485541419
11.39938838,0.3839202915717105,-0.09671930474024963,0.6459965128860073
11.40931538,0.3213090199799253,-0.15591263507137096,0.7004070708167799
11.41924338,0.2539263370154697,-0.21673736009294767,0.7502988074348269
11.42917038,0.18227313588777588,-0.2779287102444748,0.7950692256313632
11.43909738,0.10696572961225176,-0.33821743199399024,0.834192563820226
11.44902538,0.028730996831047313,-0.396354439596452,0.8672266078870409
11.45895238,-0.05160175648239022,-0.4511346694705794,0.8938177847520592
11.46888038,-0.13311207282917176,-0.5014196517685116,0.9137044788275392
11.47880738,-0.21480254550330194,-0.5461583637297477,0.9267185661825911
11.48873538,-0.2956156748181135,-0.5844059924225422,0.9327852117250366
11.49866238,-0.37445304827186404,-0.6153403084873936,0.9319210182358535
11.50858938,-0.45019646184942763,-0.6382754326100692,0.9242306489552433
11.51851737,-0.5217305483767062,-0.6526728546422699,0.9099020672557724
11.52844438,-0.5879664231227028,-0.6581496319474495,0.8892005509022671
11.53837238,-0.6478657917030247,-0.6544837393051682,0.8624616482647595
11.54829938,-0.7004648929813366,-0.6416165608756044,0.8300832522427651
11.55822738,-0.744897582253293,-0.6196525056347826,0.7925169762572344
11.56815437,-0.7804168153190414,-0.5888557032325515,0.7502590255867567
11.57808138,-0.8064137870778,-0.5496437210835332,0.7038407641122537
11.58800938,-0.8224340154935319,-0.5025782635944738,0.6538191776409229
11.59793638,-0.8281897422661076,-0.44835288892567954,0.6007674286696277
11.60786438,-0.823568142332973,-0.38777790370828086,0.5452656845334783
11.61779137,-0.8086349929862279,-0.3217627458562695,0.48789238353080566
11.62771938,-0.7836336433443445,-0.2512963058628394,0.42921608507088826
11.63764638,-0.7489793291601786,-0.17742574035609784,0.36978803397988835
11.64757437,-0.7052490722062632,-0.1012343834870975,0.3101355565965588
11.65750138,-0.6531675686456053,-0.023819359802745854,0.2507563919817986
11.66742837,-0.593589600468732,0.05373054235288333,0.19211403816429018
11.67735638,-0.527479599783824,0.1303562429800789,0.13463415915174334
11.68728338,-0.4558890590619221,0.20504855638870523,0.07870205972532891
11.69721137,-0.37993251118551236,0.27686680609902836,0.02466120059976057
11.70713838,-0.300762801747012,0.3449555177295536,-0.02718729940631477
11.71706638,-0.2195463457563249,0.40855887174740757,-0.07658424718996092
11.72699338,-0.13743900887770763,0.4670326411095152,-0.12331113600578297
11.73692038,-0.055563189209474326,0.5198533950978876,-0.16718819152976858
11.74684837,0.025013392027101584,0.5666248118460023,-0.20807182730531498
11.75677538,0.10329674945857022,0.6070809957217789,-0.24585164229504092
