Time (s),Acceleration x (m/s^2),Acceleration y (m/s^2),Acceleration z (m/s^2)
6.000524971,-1.3253417835494994,-0.5501012845868882,0.8735291105849198
6.00528768,-1.4539170180893144,-0.37720241731032106,0.8640203084952048
6.010077055,-1.5722951286357982,-0.21186674076967343,0.8387235619346134
6.014853044,-1.6765113153178637,-0.06914156656399355,0.791899960733682
6.019615805,-1.7632544154910943,0.03714913925506389,0.7191692609095095
6.024405128,-1.8300123620888813,0.09505159422076345,0.6178057530734
6.029181169,-1.8751678609691922,0.09504229816991949,0.48693934621676377
6.033943878,-1.8980380578899794,0.03047723246071336,0.3276492126059135
6.038733201,-1.8988553145460556,-0.10208880602413514,0.14294283669740684
6.043509242,-1.8786898289208234,-0.3027257074834812,-0.062380680400515386
6.048271951,-1.8393184988495952,-0.5681008373431972,-0.28197795630518513
6.053061326,-1.7830479052380765,-0.8916007941732302,-0.5083079906023724
6.057837315,-1.712502350771893,-1.263595103492032,-0.7330609838800944
6.062600023,-1.6303903217686597,-1.6718284275397315,-0.9476469268107259
6.067389398,-1.5392643795175902,-2.101922096923335,-1.1437172901830488
6.07216544,-1.4412902236554732,-2.5379608778709053,-1.313690052211809
6.076928148,-1.3380404498900786,-2.963137128555056,-1.4512466204376415
6.081717471,-1.2303273433640178,-3.36042208369596,-1.5517691405298086
6.086493513,-1.1180869525488293,-3.7132331094419526,-1.61268842897582
6.091256221,-1.0003237802090332,-4.006066522872544,-1.6337165343651214
6.096045544,-0.8751218765543071,-4.225068051283568,-1.6169438697796532
6.100821586,-0.7397241520009282,-4.358517176561243,-1.566788833431806
6.105584294,-0.5906776026415962,-4.397207245345142,-1.4897972883231283
6.110373669,-0.42403812583353373,-4.334709926805331,-1.3942993423888594
6.115149711,-0.23562495091399543,-4.167519864477806,-1.2899406586769406
6.119912419,-0.02131165510475202,-3.8950826463685266,-1.1871142580401142
6.124701742,0.22266152366092742,-3.5197159295604923,-1.0963258386296062
6.129477784,0.49937068872667173,-3.046439132080916,-1.027530570945027
6.134240492,0.8109035592123981,-2.4827310677680234,-0.9894818477051809
6.139029815,1.1580834119735595,-1.838236957851413,-0.9891324490420416
6.143805857,1.540236761409601,-1.1244463549427728,-1.0311260423049402
6.148568565,1.9550179249879616,-0.3543618367825937,-1.1174120201835769
6.15335794,2.398301245529951,0.4578247922992406,-1.2470096664318469
6.15813393,2.864149025065648,1.2970361857697705,-1.4159389269245009
6.16289669,3.3448602449369718,2.14758510766741,-1.6173251801109765
6.167686013,3.8311019299928106,2.9934189516935352,-1.841674972907649
6.172462055,4.312121563030694,3.818334588042015,-2.077309398343894
6.177224763,4.776035301260613,4.606168989188732,-2.3109323171160816
6.182014086,5.210183001753752,5.340974224994966,-2.5283025880569094
6.186790128,5.6015374301674745,6.007187468959606,-2.714973399511393
6.191552836,5.937151775069889,6.5898074411647505,-2.85705807493333
6.196342211,6.204627017613827,7.074588138998333,-2.9419805659831075
6.201118201,6.392579097285135,7.448258802143083,-2.959170232711951
6.205880909,6.491085376656755,7.698775976224392,-2.9006642218948633
6.210670284,6.4920907109874,7.815609536729389,-2.761586400118543
6.215446326,6.3897553806328515,7.7900599360082365,-2.5404788754811523
6.220209034,6.180730026703689,7.615599097001764,-2.23947011459376
6.224998357,5.864346265307922,7.288222657166783,-1.8642720394532168
6.229774398,5.442715570418334,6.806797010967548,-1.4240068682773237
6.234537107,4.92073307145838,6.17338112952421,-0.930872515436789
6.23932643,4.305986898707668,5.393500730634678,-0.39966279467656524
6.244102471,3.608577437478574,4.476351249973167,0.15283479808368766
6.24886518,2.840854163320207,3.43490637145266,0.7085355652004661
6.253654555,2.017080515821179,2.2859106960225914,1.2488161964780529
6.258430596,1.1530394648060238,1.0497385060331965,1.7553009045122963
6.263193305,0.2655940023347726,-0.24989448489418756,2.2106398652478063
6.267982628,-0.6277822398870786,-1.5863731042215268,2.599245772299741
6.272758669,-1.509488658586596,-2.9307774716118358,2.907956894536252
6.277521378,-2.3622801594437486,-4.25262106212785,3.1265987860407507
6.282310701,-3.1697335068674937,-5.520713726756077,3.248421344017497
6.287086742,-3.916683461633401,-6.704122645003286,3.2703929229440596
6.291849451,-4.589615774682683,-7.773196329772282,3.1933384853483844
6.296638826,-5.177005540449592,-8.700610331463746,3.0219141976607076
6.301414815,-5.6695911489810005,-9.462388693900118,2.7644164451389845
6.306177576,-6.060576107937724,-10.038852903771916,2.432428990792276
6.310966898,-6.345753284252907,-10.415450339291427,2.040318041875337
6.31574294,-6.523548565585769,-10.583417236594522,1.6045915076465764
6.320505648,-6.594983494452784,-10.540237012262411,1.143146059087363
6.325294971,-6.563559030547807,-10.289863290944327,0.6744339877931554
6.330071013,-6.435065236016257,-9.842687762564827,0.21659093399351212
6.334833721,-6.2173244029508306,-9.215245240880206,-0.21342612249654652
6.339623044,-5.919877984161546,-8.429661027706022,-0.6006359183943543
6.344399086,-5.553630499280512,-7.51285801431177,-0.9327104004563458
6.349161794,-5.130465974853448,-6.495552235030753,-1.200484910857636
6.353951169,-4.66285394188353,-5.411075414724513,-1.3982664869928731
6.358727211,-4.163462198933884,-4.294071144265878,-1.5239227459143756
6.363489919,-3.6447923729769487,-3.1791174693868944,-1.5787516314432624
6.368279242,-3.1188519261219847,-2.099332718476282,-1.5671484680561942
6.373055284,-2.5968729392522287,-1.0850231892557824,-1.4960999914366488
6.377817992,-2.0890841128815705,-0.1624307724183155,-1.374544784226313
6.382607315,-1.6045384175521717,0.647364321035805,-1.212645782191217
6.387383357,-1.1509952077361854,1.3293357970335467,-1.021023469079098
6.392146065,-0.7348528008581169,1.8751559518707692,-0.8099983948564237
6.39693544,-0.3611257006368192,2.2835595467486884,-0.588889072609254
6.40171143,-0.033459744486312316,2.56040445214863,-0.3654064776952413
6.40647419,0.24582172665085092,2.718418513244381,-0.1451796774385363
6.411263513,0.4756472526079514,2.7766346070398087,0.06856100724779565
6.416039555,0.656108104108131,2.759528582466834,0.2751260219278503
6.420802263,0.7883556501950355,2.695887259875446,0.47632616531389227
6.425591586,0.8744893934897975,2.6174454783706573,0.6762519390896621
6.430367628,0.917439034884912,2.55734189128116,0.8808844063535316
6.435130336,0.920843352859527,2.548452416591851,1.0975582064677951
6.439919711,0.8889283258307857,2.621667572572556,1.3343052806832691
6.444695753,0.8263867127915698,2.804185026460625,1.5991144714712058
6.449458461,0.7382611257548262,3.1178912612497798,1.8991472152151414
6.454247784,0.6298323796232781,3.577906091789381,2.2399528404920996
6.459023826,0.5065145478090978,4.191360689817201,2.624728336609303
6.463786534,0.37375771038873856,4.956473761001232,3.0536667432954157
6.468575857,0.23695892462988363,5.861981612544875,3.5234354887621557
6.473351898,0.1013815456327134,6.886966222261489,4.026821132184307
6.478114607,-0.027917280042699708,8.001111348563645,4.552570210838555
6.482903982,-0.14615132838463274,9.165400597441158,5.085447490877329
6.487679971,-0.24886272827966208,10.333253680320821,5.606523170779049
6.492442732,-0.3319726997876938,11.452078440152727,6.093689838171962
6.497232055,-0.39182623917371945,12.465197259058264,6.522398640987045
6.502008096,-0.4252313866508085,13.314087923821763,6.866592665217906
6.506770805,-0.4294936354634413,13.940861697632013,7.0998044209392255
6.511560128,-0.4024458723979348,14.290886035503208,7.196374159529539
6.516336169,-0.34247398119403105,14.315446894111323,7.132737014011746
6.521098878,-0.24853790948813054,13.97433670144469,6.888720177062214
6.525888253,-0.12018763077116192,13.23824947489046,6.44878696158801
6.530664242,0.042426914075152464,12.090864893785517,5.803163021260372
6.535427003,0.23855305345698935,10.53050875957757,4.948781555669539
6.540216326,0.46684102856055526,8.571288428855391,3.8899891692899176
6.544992367,0.7253591418416635,6.243618473298326,2.6389622138576736
6.549755076,1.0116191527373422,3.594073737814946,1.2157947787739
6.554544398,1.3226120237354877,0.684533565224586,-0.3517662995468918
6.55932044,1.654853127045979,-2.4093886497204764,-2.028947464167868
6.564083148,2.004434665249555,-5.600603392324999,-3.7749253401123193
6.568872523,2.3670814673087412,-8.793429019992852,-5.544125400818289
6.573648513,2.7382048065202196,-11.887006520573523,-7.287794573334883
6.578411273,3.1129479104658047,-14.77911796748561,-8.955782451520843
6.583200596,3.48621685786605,-17.37025368474752,-10.498450423907853
6.587976638,3.8526918506120924,-19.567750802121566,-11.86861573862372
6.592739346,4.206816364622806,-21.289810741662215,-13.023429377604177
6.597528669,4.542765129770373,-22.469196715542914,-13.926084069427386
6.602304711,4.85439602357714,-23.056416060343324,-14.547254191167331
6.607067419,5.135195830124213,-23.022208024985595,-14.86618563247893
6.611856794,5.378235293451231,-22.35918727297429,-14.871381831896278
6.616632784,5.5761536510130805,-21.082537078957078,-14.560867658547977
6.621395544,5.721194326056161,-19.229700956487115,-13.942046672941405
6.626184867,5.8053099201948415,-16.85908111337485,-13.031192218202506
6.630960909,5.8203469347143395,-14.047809660480636,-11.85262739201251
6.635723617,5.7583114904261805,-10.888708319070247,-10.437656137808904
6.64051294,5.611708991739377,-7.486591359434922,-8.823310585832647
6.645288982,5.373943904044432,-3.9540936914018157,-7.050979861877061
6.65005169,5.03976035827945,-0.40722173263504435,-5.1649832357386884
6.654841013,4.605699906220356,3.039170258324153,-3.2111458654034046
6.659617055,4.070549426302919,6.275780284623281,-1.235428882608825
6.664379815,3.435750076712182,9.202950186415952,0.7173422764159196
6.669169138,2.705737503189208,11.734284173687508,2.604616041549907
6.67394518,1.8881844233866576,13.799656174198383,4.387093270469685
6.678707888,0.9941193798448174,15.347498660651652,6.029529554315948
6.683497211,0.03789994760448015,16.3462993319735,7.501354153639845
6.688273253,-0.9629750481171498,16.785267138375854,8.777107595102645
6.693035961,-1.9882218796571,16.67416423229603,9.836708107664949
6.697825284,-3.015295249837883,16.04233417107613,10.665563627478912
6.702601326,-4.020067042720521,14.936987893022946,11.254550576960535
6.707364086,-4.977638682033761,13.420836599985513,11.599882756476884
6.712153409,-5.863255439863837,11.569183866456319,11.70289347404226
6.716929451,-6.653282263580184,9.466607429814259,11.569751758577878
6.721692159,-7.326193649844997,7.20337377991339,11.211129674029205
6.726481482,-7.863525403829661,4.871735622087175,10.641833037796454
6.731257523,-8.250734311109133,2.562263442563032,9.880402934281243
6.736020232,-8.477913252901024,0.36035778547864383,8.948690920930057
6.740809555,-8.540314434115828,-1.6569213934819385,7.8714072622766205
6.745585596,-8.43864231313073,-3.42358749967163,6.675639285712205
6.750348305,-8.179090347026532,-4.886921806256824,5.390336265777933
6.75513768,-7.773111141013103,-6.009053838280067,4.045758164488139
6.759913721,-7.23692682121087,-6.7678794850646975,2.6728879359627347
6.76467643,-6.590803818647553,-7.157298349316886,1.3028105892921338
6.769465753,-5.8581319946839,-7.186781980616321,-0.0339337300352591
6.774241794,-5.064360579888128,-6.880313658570981,-1.308011309989106
6.779004503,-4.235851641410824,-6.274766738325448,-2.4919561600510374
6.783793826,-3.398715261959156,-5.417810943912475,-3.560813202473518
6.788569867,-2.577689437024002,-4.365453427313805,-4.492743451724948
6.793332576,-1.795122481272721,-3.179333283786574,-5.269569945546391
6.798121951,-1.0701073608508738,-1.9238942363804954,-5.877242715675666
6.80289794,-0.4178067722204088,-0.6635603810932609,-6.306201685608206
6.807660701,0.1510041902251656,0.5399655399659664,-6.5516184648500895
6.812450023,0.6301635713087633,1.6301724698209197,-6.613501999047728
6.817226065,1.018114713862261,2.557886233964849,-6.49665898388491
6.821988773,1.3176754285140828,3.2830145859776736,-6.210507218147317
6.826778096,1.5356053213915475,3.7758381956758678,-5.76874750722133
6.831554138,1.6820015288138113,4.017815894484108,-5.188906258714721
6.836316846,1.769560242777852,4.0018946537140065,-4.491765982762332
6.841106221,1.8127463710841447,3.7323359100589135,-3.700704479953892
6.845882211,1.8269163424250323,3.224089197190079,-2.8409657881915997
6.850644971,1.8274394071853548,2.501760976630024,-1.9388872315177708
6.855434294,1.8288608584417572,1.598240605930166,-1.0211073866478304
6.860210336,1.8441465668001282,0.5530561849431691,-0.11377960281334203
6.864973044,1.8840423620711086,-0.5894596552677643,0.7581850427190043
6.869762367,1.9565744884195215,-1.7821102368440978,1.5718227649119134
6.874538409,2.0667090750851838,-2.9767977006968143,2.3067492930499336
6.879301117,2.216179807010883,-4.126427742475184,2.945700810525605
6.88409044,2.4034842428205225,-5.186682321487702,3.474967814550672
6.888866482,2.6240409664792788,-6.117595898478764,3.8847091091040706
6.893629242,2.8704923837850926,-6.884882540614335,4.169136466608753
6.898418565,3.1331318487121322,-7.460974739952301,4.3265641858860615
6.903194607,3.4004292218638277,-7.825749352648827,4.359321928265286
6.907957315,3.6596260974677413,-7.966930950301396,4.273533869903659
6.912746638,3.8973707783262066,-7.880177312760179,4.078772252894163
6.91752268,4.100363431181686,-7.56886503142028,3.7875985527785403
6.922285388,4.255983409897992,-7.043604591347022,3.415010308418098
6.927074711,4.352873188863897,-6.321523406182095,2.9778158069552156
6.931850753,4.381456471300667,-5.425361847553325,2.4939619836111726
6.936613513,4.334371661453697,-4.382431274360396,1.9818428614099841
6.941402836,4.206805895860902,-3.223484494463022,1.459616485619614
6.946178826,3.9967191188998568,-1.981548155835885,0.9445575766275451
6.950941586,3.7049521623894006,-0.6907635320910728,0.45247110871508356
6.955730909,3.335217331314885,0.6147226200650072,-0.0028111338276471973
6.960506951,2.893974467860692,1.901781601965912,-0.4098330732738573
6.965269659,2.39019970937849,3.1392122666118087,-0.7598027876498311
6.970058982,1.835058025104973,4.298515599234692,-1.0467590051331601
6.974835023,1.2414939881308797,5.3545211673483335,-1.2676131876566328
6.979597732,0.6237580137291459,6.285859544447526,-1.4220701225137065
6.984387107,-0.003112610411238581,7.075281475066303,-1.5124350563653368
6.989163148,-0.6238372257116589,7.709830303064289,-1.543320078754014
6.993925857,-1.2234385865041675,8.18087886362957,-1.5212665162317232
6.99871518,-1.7877718817859227,8.484045555522865,-1.4543033706540462
7.003491221,-2.3040159067247026,8.619006645298995,-1.3514641909104974
7.00825393,-2.76110795583318,8.589223052299227,-1.222286108927964
7.013043253,-3.1501063136047147,8.401600020959378,-1.0763150418353546
7.017819294,-3.4644670930792025,8.066097354230582,-0.9226402517475876
7.022582003,-3.700225527656395,7.595306445624027,-0.7694796013627032
7.027371378,-3.8560755437802214,7.00400841631831,-0.6238340322067686
7.032147367,-3.933345399659879,6.3087254524690275,-0.49122614545596827
7.036923409,-3.9358712248735674,5.52727515298287,-0.3755334386169374
7.041699451,-3.8697742908146333,4.678335524191689,-0.2789219320062863
7.046475492,-3.743151633120862,3.781026344084859,-0.20188081991614032
7.051238201,-3.56569308097711,2.8545110716608817,-0.14335363321722935
7.056027523,-3.3482406711136132,1.917622363213236,-0.10095644268656073
7.060803565,-3.1023086969332287,0.988513608003622,-0.071269105931973
7.065566273,-2.839584160002564,0.08433870334192853,-0.05018170033857865
7.070355648,-2.571428097755991,-0.7790375029340882,-0.0332753175816777
7.075131638,-2.308398157131725,-1.5872951797703239,-0.016214534097989772
7.079894398,-2.059811907530445,-2.327878347230149,0.004871718429899458
7.084683721,-1.8333687935769285,-2.990172470134331,0.03304341056479708
7.089459763,-1.634846375979945,-3.5656363574791103,0.07025730658372946
7.094222471,-1.467883653461584,-4.047883917579285,0.1171468831756309
7.099011794,-1.3338608615897962,-4.432711768554341,0.17288771535552003
7.103787836,-1.2318812819961424,-4.718069668175246,0.23515723465407218
7.108550544,-1.1588563712789317,-4.90397224806965,0.30019287824678637
7.113339919,-1.1096910736201056,-4.992352631242239,0.36294760491591477
7.118115909,-1.0775616938982195,-4.98686116476456,0.4173367304660705
7.122878669,-1.0542743823809952,-4.892615641912618,0.45656520622243996
7.127667992,-1.0306883324419465,-4.715912852247012,0.4735200097429937
7.132444034,-0.9971844526804702,-4.46391478334721,0.46120842128934747
7.137206742,-0.9441578097638256,-4.144325874186807,0.4132198112556052
7.141996065,-0.8625108157250867,-3.7650798872563414,0.32418635270352175
7.146772107,-0.7441241390162988,-3.334055764808012,0.19021697949958413
7.151534815,-0.5822836757714638,-2.8588409721480446,0.009279085839248332
7.156324138,-0.3720444773596641,-2.3465582622137218,-0.21849598927731353
7.16110018,-0.11051603181231168,-1.8037677093819495,-0.49060469548175334
7.165862888,0.20294255718101337,-1.2364506033160183,-0.8020769283096677
7.170652263,0.5666244500461104,-0.6500757920582076,-1.1455068513883804
7.175428305,0.9764763805227341,-0.04974277580575087,-1.5112137753899597
7.180191013,1.4261973291533394,0.5596102556459362,-1.887531113023517
7.184980336,1.9074284059064919,1.1729507276793185,-2.2612144287273903
7.189756378,2.4100241959144775,1.7848700579334782,-2.617952866426536
7.194519086,2.9223928379401847,2.389300916081602,-2.942962140406434
7.199308409,3.431889787634402,2.979259659345791,-3.2216321552867018
7.204084451,3.925248591728677,3.5466399907955215,-3.44019848978938
7.208847211,4.389031071621512,4.082081889486599,-3.5864047022190007
7.213636534,4.810079081413042,4.574936201090378,-3.65012190360827
7.218412576,5.175950455723217,5.013340153937147,-3.623893427092296
7.223175284,5.475322891321523,5.384412768529576,-3.5033757035418303
7.227964607,5.698351316683626,5.674572013522679,-3.2876514503042915
7.232740648,5.836966775690392,5.869968022842233,-2.979397595633415
7.237503357,5.885107896498532,5.957019140133188,-2.584897464742754
7.24229268,5.838879455252911,5.92303040906326,-2.113894135446038
7.247068721,5.6966361354967585,5.756867770376352,-1.5792891630689443
7.25183143,5.458993076169734,5.449656006568607,-0.9966978433586778
7.256620805,5.128767974002596,4.995464680901962,-0.38387865024135215
7.261396846,4.710862183460248,4.391944168628834,0.23993973969835763
7.266159555,4.212090291839059,3.640873525566126,0.8548055653402169
7.270948878,3.6409689072433324,2.7485834715520716,1.440833275331765
7.275724919,3.0074757839479163,1.7262212219963078,1.979000756558341
7.280487628,2.3227899039135944,0.5898292722046079,2.451919621893294
7.285276951,1.5990218399284775,-0.6397825431412645,2.844544791322525
7.290052992,0.8489418753657567,-1.9373834993480286,3.144792348800314
7.294815701,0.08571125461049917,-3.273888462225493,3.3440387470979362
7.299605076,-0.6773800979149427,-4.6171347464697545,3.4374794687058667
7.304381065,-1.4271677501442517,-5.9328481849536505,3.424330858296433
7.309143826,-2.150858337314256,-7.185766043045808,3.3078647422957146
7.313933148,-2.8362665209153297,-8.340874208092274,3.095271472023642
7.31870919,-3.472043055354552,-9.364707532745163,2.7973530919418828
7.323471898,-4.047892741613898,-10.226655906187395,2.428054486641057
7.328261221,-4.5547795178867565,-10.90021508424467,2.0038468399120886
7.333037263,-4.9851139727392395,-11.364120949418485,1.5429849858805975
7.337799971,-5.332916449907488,-11.603308952892016,1.064668595638237
7.342589346,-5.593947177039599,-11.609646988264583,0.5881463603413742
7.347365336,-5.765794201540106,-11.382399497173177,0.13181119842000835
7.352128096,-5.847910938881121,-10.92839258611356,-0.28765896167025085
7.356917419,-5.841597990662425,-10.261863624996177,-0.6560583685492422
7.361693461,-5.749928177903515,-9.403993520178583,-0.9622566480807158
7.366456169,-5.5776185716604365,-8.382134957501918,-1.1986072044697378
