Time (s),Acceleration x (m/s^2),Acceleration y (m/s^2),Acceleration z (m/s^2)
10.0044971,5.10149765,-7.477570534,-0.2727817893
10.00925251,5.156532764,-7.654639721,-0.1722832322
10.01400788,5.285745144,-7.831708431,-0.06221338734
10.01876329,5.558526993,-7.908278942,0.002392822644
10.02351871,5.972485542,-7.958528042,-0.06939185411
10.02827408,6.484549522,-7.917850018,-0.3254238665
10.03302949,6.999006271,-7.802994728,-0.7513462901
10.03778486,7.434499741,-7.683353424,-1.239482164
10.04254022,7.802994728,-7.487142086,-1.770688772
10.04729564,8.08295536,-7.231110096,-2.105684042
10.05205105,8.226524353,-7.008577347,-2.14157629
10.05680642,8.257631302,-6.802794933,-1.892722726
10.06156184,8.214560509,-6.630511761,-1.540977836
10.0663172,8.111668587,-6.477370739,-1.064806104
10.07107262,7.896314621,-6.42472887,-0.4929214716
10.07582798,7.697710514,-6.472585201,0.1244267747
10.0805834,7.601997375,-6.479763508,0.5958128572
10.08533876,7.515855789,-6.515655994,0.9188438654
10.09009418,7.434499741,-6.664011002,1.067198873
10.09484954,7.420143127,-6.831508636,1.093519926
10.09960496,7.568498135,-6.953542709,0.9619147182
10.10436032,7.853243828,-7.106683254,0.7393822074
10.10911574,8.300702095,-7.262216568,0.3326023519
10.11387111,8.819944382,-7.434499741,-0.05264209956
10.11862652,9.327222824,-7.60678339,-0.2201396823
10.12338189,9.7698946,-7.793423176,-0.1938186288
10.1281373,10.06660461,-7.941778183,-0.04067798331
10.13289267,10.11685371,-8.023134232,0.04546362907
10.13764809,9.887143135,-8.047062874,0.1292124242
10.1424035,9.540184021,-8.051848412,0.2057827413
10.14715887,9.233902931,-7.996813297,0.3708875179
10.15191428,8.961120605,-7.891529083,0.6221339107
10.15666965,8.659625053,-7.724031448,0.890130043
10.16142507,8.303094864,-7.51346302,1.100698471
10.16618043,7.867600918,-7.25743103,1.210768223
10.17093585,7.374679565,-7.003791809,1.232303619
10.17569121,6.92243576,-6.738188744,1.232303619
10.18044663,6.431907177,-6.463014126,1.237089276
10.18520199,5.986842155,-6.285944939,1.210768223
10.18995741,5.587240696,-6.092126369,1.160519004
10.19471277,5.261816978,-5.958128452,1.014556766
10.19946819,5.120640278,-5.840879917,0.8398807645
10.20422355,5.060820103,-5.747560024,0.5551348329
10.20897897,4.998606682,-5.678168297,0.2368894368
10.21373434,5.118247509,-5.644668579,-0.08853443712
10.21848975,5.290530682,-5.697310925,-0.3924229145
10.22324512,5.517848969,-5.850451469,-0.6484549642
10.22800053,5.831308842,-6.089733601,-0.8111668825
10.2327559,6.142375946,-6.400800705,-0.9236295223
10.23751132,6.398407936,-6.807580471,-0.9978070259
10.24226668,6.592226505,-7.269395351,-1.062413216
10.2470221,6.699903488,-7.714460373,-1.079162955
10.25177746,7.111468792,-8.408378601,-0.9379864931
10.25653288,7.38664341,-9.080761909,-0.7058826685
10.26128824,7.4010005,-9.609575272,-0.5766702294
10.26604366,7.7838521,-10.39681435,-0.35174492
10.27079902,8.061419487,-11.1936245,-0.1722832322
10.27555444,8.051848412,-11.9162569,-0.0382851623
10.2803098,7.800601959,-12.31585789,0.1411765367
10.28506522,7.975277901,-13.09591866,0.5527420044
10.28982059,7.97767067,-13.60080433,0.9714859724
10.294576,7.393822193,-13.52423382,1.052842021
10.29933137,7.439285755,-13.94058514,0.9978070259
10.30408678,7.022934437,-13.94297791,0.6891329288
10.30884215,6.403193474,-13.51944828,0.1459621787
10.31359756,5.733202934,-12.73220921,-0.3493520916
10.31835293,5.347958565,-11.79183006,-0.7441678643
10.32310835,5.19481802,-10.92802143,-1.048056364
10.32786371,5.190032482,-10.164711,-1.234696507
10.33261913,5.216353416,-9.487542152,-1.445264935
10.33737449,5.118247509,-8.867800713,-1.648654819
10.34212991,4.926821709,-8.372486115,-1.797009826
10.34688527,4.826323509,-8.018348694,-1.677368641
10.35164069,4.718646049,-7.795815945,-1.270588875
10.35639605,4.754538536,-7.712067604,-0.8111668825
10.36115147,4.756931305,-7.704888821,-0.5024927258
10.36590684,4.816751957,-7.788637638,-0.4833501875
10.37066225,4.802394867,-7.843672752,-0.6101697683
10.37541762,4.80957365,-7.92742157,-0.6723831892
10.38017303,4.886143684,-8.008777618,-0.5647061467
10.3849284,4.98903513,-8.094919205,-0.3852444589
10.38968382,5.082355499,-8.188239098,-0.2536391914
10.39443918,5.278566837,-8.346165657,-0.2033899277
10.3991946,5.553741455,-8.568697929,-0.4354937077
10.40394996,5.857629776,-8.87258625,-0.7633104324
10.40870538,6.137589931,-9.233902931,-1.091127157
10.41346074,6.470192432,-9.628718376,-1.380658627
10.41821616,6.917650223,-10.10967541,-1.552941918
10.42297152,7.479963779,-10.65763187,-1.497906923
10.42772694,8.08295536,-11.22951698,-1.1820544
10.4324823,8.709874153,-11.78465176,-0.6699903607
10.43723772,9.226723671,-12.15075302,-0.03589234129
10.44199309,9.504291534,-12.30389404,0.5264210105
10.4467485,9.456435204,-12.05504036,1.064806104
10.45150387,9.169296265,-11.56211948,1.481157184
10.45625928,8.839086533,-10.93519974,1.744367719
10.46101465,8.41077137,-10.26760197,1.816152334
10.46577007,7.941778183,-9.602396965,1.777867198
10.47052543,7.288537979,-8.963513374,1.607976794
10.47528085,6.372086525,-8.346165657,1.416550994
10.48003621,5.424529076,-7.8341012,1.177268744
10.48479163,4.546362877,-7.377072334,1.016949654
10.48954699,3.625126362,-7.006184578,0.8853443861
10.49430241,2.773281336,-6.661618233,0.8231309652
10.49905777,2.074577332,-6.407979012,0.7872386575
10.50381319,1.500299811,-6.24766016,0.8207381964
10.50856855,1.10309124,-6.113661766,0.8685946465
10.51332397,0.8494520187,-6.077769279,0.9834501147
10.51807934,0.6819544435,-6.096911907,1.081555843
10.52283475,0.5192425251,-6.192625046,1.091127157
10.52759012,0.3182454109,-6.343372822,1.050449133
10.53234553,0.1124626622,-6.491727829,0.9355936646
10.5371009,-0.02871387079,-6.740581512,0.7106683254
10.54185632,-0.0239282269,-7.058826923,0.3302095234
10.54661168,0.1555334777,-7.379465103,-0.2273181528
10.5513671,0.500099957,-7.640282631,-0.9116654396
10.55612246,1.079162955,-7.822137356,-1.631905079
10.56087788,1.864008784,-7.92742157,-2.280359983
10.56563324,2.694318295,-7.936992645,-2.723032236
10.57038866,3.443271875,-7.941778183,-2.98863554
10.57514402,4.15633297,-7.884350777,-2.950350285
10.57989944,4.862215519,-7.841279984,-2.644068956
10.5846548,5.709274769,-7.860422611,-2.23728919
10.58941017,6.781259537,-7.901100159,-1.780260086
10.59416559,7.989634991,-8.085348129,-1.397408366
10.59892095,9.152546883,-8.214560509,-0.9619147182
10.60367637,10.36331463,-8.33898735,-0.3637090325
10.60843173,11.51904774,-8.444271088,0.5383850932
10.61318715,12.76092339,-8.48973465,1.564906001
10.61794251,13.87837124,-8.487341881,2.447857618
10.62269793,14.84267902,-8.43948555,3.304488182
10.62745329,15.67059517,-8.362915039,3.85244441
10.63220871,16.18983841,-8.240880966,4.034298897
10.63696408,16.45065498,-8.188239098,3.888336897
10.64171949,16.07737541,-8.149953842,3.388236761
10.64647486,15.30927944,-8.092526436,2.555534601
10.65123027,14.11765385,-8.087740898,1.677368641
10.65598564,12.67956734,-8.008777618,0.7680960894
10.66074105,11.10269737,-7.910671711,0.004785645287
10.66549642,9.671789169,-7.800601959,-0.6245267391
10.67025184,8.573483467,-7.673782349,-1.05523479
10.6750072,7.905886173,-7.561319351,-1.177268744
10.67976262,7.676175117,-7.451249599,-1.043270707
10.68451798,7.786244869,-7.405786037,-0.813559711
10.68927335,7.960920811,-7.362715244,-0.7513462901
10.69402876,7.960920811,-7.350750923,-0.9212366939
10.69878413,7.704888821,-7.393822193,-1.131805062
10.70353954,7.314858913,-7.537391186,-1.325623751
10.70829491,6.814758778,-7.728816986,-1.430907965
10.71305033,6.31226635,-7.877171993,-1.385444283
10.71780569,5.843272686,-8.030312538,-1.277767301
10.72256111,5.479563713,-8.080561638,-1.210768223
10.72731647,5.331208706,-8.097311974,-1.177268744
10.73207189,5.438885689,-8.0757761,-1.160519004
10.73682725,5.659025669,-8.001599312,-1.141376376
10.74158267,5.958128452,-7.925028801,-1.088734269
10.74633803,6.278766632,-7.819744587,-0.9834501147
10.7510934,6.678368092,-7.702496052,-0.7752745152
10.75584882,7.135396957,-7.566105366,-0.4522434771
10.76060418,7.673782349,-7.377072334,-0.06939185411
10.7653596,8.15473938,-7.202396393,0.2464607358
10.77011496,8.554341316,-6.963113785,0.4235295951
10.77487038,8.913264275,-6.747759819,0.5024927258
10.77962574,9.274580956,-6.589833736,0.3756731451
10.78438116,9.611968994,-6.443871498,0.09810572863
10.78913652,9.868000984,-6.367300987,-0.2823530734
10.79389194,9.951749802,-6.326622963,-0.760917604
10.7986473,9.844072342,-6.324230194,-1.289731383
10.80340272,9.566504478,-6.448657036,-1.926222205
10.80815809,8.858229637,-6.673582554,-2.548356056
10.81291345,7.79820919,-6.845865726,-3.08434844
10.81766887,6.656832695,-6.941578388,-3.354737282
10.82242423,5.675775528,-6.910471916,-3.208775282
10.82717965,4.957928658,-6.798008919,-2.658426046
10.83193501,4.510470867,-6.532405853,-1.887937069
10.83669043,4.256831646,-6.202196121,-1.124626637
10.84144579,4.094119549,-5.781059742,-0.4618147612
10.84620121,3.99601388,-5.343173027,0.04067798331
10.85095658,3.893122435,-4.919643402,0.4618147612
10.85571199,3.723232031,-4.572684288,0.7728816867
10.86046736,3.558127165,-4.266402721,0.9690931439
10.86522272,3.505485058,-3.936193228,0.993021369
10.86997814,3.558127165,-3.608376503,0.8733802438
10.8747335,3.579662561,-3.323630571,0.708275497
10.87948892,3.538984776,-3.189632654,0.5647061467
10.88424428,3.455235958,-3.125026464,0.524028182
10.8889997,3.464807272,-3.134597778,0.471386075
10.89375506,3.675375462,-3.151347399,0.2297109663
10.89851048,4.036691666,-3.211168051,0.004785645287
10.90326585,4.460221291,-3.294916868,-0.2033899277
10.90802126,4.886143684,-3.390629768,-0.2464607358
10.91277663,5.290530682,-3.534198999,-0.02871387079
10.91753199,5.790630817,-3.680161238,0.6987041831
10.92228741,6.39601469,-3.816552162,1.639083505
10.92704277,6.953542709,-3.945764542,2.246860504
10.93179819,7.324429989,-4.067798615,2.153540373
10.93655355,7.467999458,-4.098905087,1.452443361
10.94130897,7.463213921,-4.039084435,0.7130611539
10.94606434,7.594819069,-3.972085476,0.3613162339
10.95081975,7.934599876,-3.955335855,0.4666004181
10.95557512,8.472985268,-3.94815731,0.8973084688
10.96033048,9.298508644,-3.9625144,1.462014675
10.9650859,9.839286804,-3.955335855,1.605584025
10.96984126,10.09053326,-3.864408493,1.028913736
10.97459668,10.00678444,-3.749552965,-0.06939185411
10.97935204,10.02114105,-3.7710886,-1.301695466
10.98410746,10.15513897,-3.809373617,-1.93340075
10.98886282,10.39202881,-4.02712059,-1.940579176
10.99361819,10.30827999,-4.33340168,-1.612762451
10.99837361,9.693324089,-4.61814785,-1.287338614
11.00312897,8.803194046,-4.895715237,-1.107876897
11.00788439,7.795815945,-5.067998409,-1.004985452
11.01263975,6.812366009,-5.154139996,-0.890130043
11.01739517,5.924628735,-5.216353416,-0.7585247755
11.02215053,5.087141037,-5.19481802,-0.6699903607
11.02690595,4.386044025,-5.044070244,-0.6101697683
11.03166132,3.809373617,-4.78085947,-0.6293123364
11.03641668,3.316452265,-4.441078663,-0.8350951076
11.0411721,2.864208698,-4.063013077,-0.9643075466
11.04592746,2.443071842,-3.66101861,-0.9858429432
11.05068288,2.127219439,-3.294916868,-0.9523434043
11.05543824,1.954936147,-2.945564747,-0.8446664214
11.06019366,1.986042738,-2.600998163,-0.7130611539
11.06494902,2.084148407,-2.30189538,-0.6412764788
11.06970439,2.220539331,-2.041077614,-0.6101697683
11.0744598,2.359323025,-1.770688772,-0.6628118753
11.07921517,2.49332118,-1.636690736,-0.6723831892
11.08397059,2.897708178,-1.555334687,-1.186840057
11.08872595,3.318845034,-1.603191137,-1.584048629
11.09348137,3.536591768,-1.706082582,-1.653440475
11.09823673,4.070191383,-1.832902193,-1.799402595
11.1029921,4.488935471,-1.990828395,-1.753939033
11.10774751,4.876572609,-2.201396942,-1.478764415
11.11250288,5.247459888,-2.481357098,-1.143769264
11.11725829,5.582455158,-2.775674343,-0.8470591903
11.12201366,5.900700569,-3.141776085,-0.7513462901
11.12676908,6.199803352,-3.56530571,-0.732203722
11.13152444,6.587440968,-4.096512318,-0.7393822074
11.1362798,7.032505512,-4.632504463,-0.8805587292
11.14103522,7.398607731,-5.230710506,-1.091127157
11.14579059,7.802994728,-5.869594097,-1.208375454
11.150546,8.128418922,-6.48933506,-1.146162033
11.15530137,8.327022552,-7.118647575,-1.03848505
11.16005673,8.437092781,-7.704888821,-0.94277215
11.16481215,8.48973465,-8.18345356,-0.8638089895
11.16956751,8.597412109,-8.549555779,-0.7824530005
11.17432293,8.676374435,-8.860622406,-0.7417750359
11.17907829,8.786444664,-9.111868858,-0.8159525394
11.18383371,8.939585686,-9.317651749,-1.110269666
11.18858908,9.066405296,-9.482755661,-1.555334687
11.19334444,9.190832138,-9.56411171,-1.957328916
11.19809986,9.31525898,-9.585647583,-2.321038008
11.20285522,9.477970123,-9.49232769,-2.627319336
11.20761064,9.580862045,-9.291330338,-2.801995277
11.212366,9.499505997,-8.985049248,-2.794816732
11.21712137,9.480362892,-8.516056061,-2.79720974
11.22187678,9.379864693,-8.039883614,-2.536391973
11.22663215,9.047262192,-7.590033531,-2.136790514
11.23138756,8.563912392,-7.089933395,-1.643869162
11.23614293,8.099704742,-6.56829834,-1.179661512
11.24089835,7.680960655,-6.099305153,-0.7992027402
11.24565371,7.25743103,-5.706882,-0.418743968
11.25040908,6.821937561,-5.40060091,-0.009571290575
11.25516449,6.336194515,-5.230710506,0.3182454109
11.25991986,5.943771362,-5.211567879,0.4905286431
11.26467527,5.596812248,-5.190032482,0.5670989752
11.26943064,5.38624382,-5.218746185,0.4426721931
11.274186,5.33599472,-5.225924492,0.1316052526
11.27894142,5.422136307,-5.211567879,-0.2632105052
11.28369678,5.670989513,-5.192425251,-0.5527420044
11.2884522,6.010770321,-5.20917511,-0.7130611539
11.29320757,6.300302029,-5.235496044,-0.7944171429
11.29796293,6.585047722,-5.357530117,-0.6939185858
11.30271835,6.965506554,-5.486742496,-0.4115654826
11.30747371,7.456035137,-5.618347645,-0.08374879509
11.31222913,7.994420528,-5.807380676,0.1052841991
11.31698449,8.46819973,-6.070590973,0.1698904037
11.32173986,8.870193481,-6.343372822,0.2033899277
11.32649527,9.183652878,-6.685546398,0.2656033039
11.33125064,9.461220741,-7.106683254,0.2775674164
11.33600605,9.717252731,-7.580461979,0.2273181528
11.34076142,9.913464546,-8.164310455,0.1339980662
11.34551684,10.08814049,-8.810373306,0.02153540403
11.3502722,10.01635551,-9.339186668,-0.06699903309
11.35502756,10.2652092,-10.04746246,0.08853443712
11.35978298,10.2652092,-10.64566803,0.2009970993
11.36453835,10.14796066,-11.11944675,0.2416750938
11.36929371,9.901499748,-11.40897846,0.2847459018
11.37404913,9.458827972,-11.50229836,0.3062812984
11.37880449,8.719446182,-11.27737331,0.2967100143
11.38355991,8.109275818,-11.01177025,0.4426721931
11.38831527,7.496713161,-10.60499001,0.5479564071
11.39307064,6.853044033,-10.05464077,0.5718846321
11.39782605,6.149554253,-9.446864128,0.4833501875
11.40258142,5.603990555,-8.877371788,0.4307080805
11.40733684,5.166104317,-8.341380119,0.2703889608
11.4120922,4.977071285,-7.877171993,0.1387837082
11.41684762,4.957928658,-7.506284714,-0.05982056633
11.42160298,5.137390137,-7.231110096,-0.2751746178
11.42635835,5.551348686,-7.142575741,-0.5575276613
11.43111376,6.254838467,-7.140182972,-0.7896314859
11.43586913,7.204789162,-7.300501823,-0.9116654396
11.44062449,8.176275253,-7.573283672,-0.8063812256
11.44537991,8.930013657,-7.941778183,-0.471386075
11.45013527,9.49232769,-8.28155899,0.06221338734
11.45489069,9.863214493,-8.614161491,0.3158525825
11.45964605,9.992427826,-8.994620323,0.2129612118
11.46440142,9.693324089,-9.176474571,-0.0765703246
11.46915684,9.95414257,-9.714859962,-0.2679961324
11.4739122,10.21735287,-10.14556789,-0.2823530734
11.47866762,10.24606609,-10.38724327,-0.2321037948
11.48342298,10.19103146,-10.53799057,-0.1794617027
11.48817835,9.973284721,-10.61216831,-0.1292124242
11.49293376,9.64068222,-10.57388306,-0.09810572863
11.49768913,9.269794464,-10.49013424,0.05024927482
11.50244449,8.941978455,-10.32742214,0.313459754
11.50719991,8.652446747,-10.06899738,0.5623133183
11.51195527,8.537590981,-9.765109062,0.6364908218
11.51671069,8.525627136,-9.387042999,0.4283152521
11.52146605,8.482556343,-9.102297783,0.007178467698
11.52622142,8.437092781,-8.956335068,-0.433100909
11.53097684,8.372486115,-8.930013657,-0.7369893789
11.5357322,8.279166222,-8.953942299,-0.9858429432
11.54048762,8.049455643,-8.989834785,-1.110269666
11.54524298,7.750352383,-9.011369705,-1.172483087
11.54999835,7.412964344,-9.004191399,-1.299302697
11.55475376,6.994220734,-9.016156197,-1.426122308
11.55950913,6.520441532,-8.992227554,-1.450050473
11.56426454,5.996413708,-8.975478172,-1.373480201
11.56901991,5.50109911,-8.896514893,-1.270588875
11.57377527,5.027320385,-8.817551613,-1.083948612
11.57853069,4.527220249,-8.69551754,-0.8327022791
11.58328605,4.046263218,-8.551948547,-0.5838487148
11.58804142,3.634697676,-8.437092781,-0.2919243574
11.59279684,3.335594654,-8.38923645,-0.01914258115
11.5975522,3.194418192,-8.451449394,0.1722832322
11.60230756,3.115455151,-8.578269005,0.4378865361
11.60706298,3.177668571,-8.755337715,0.6819544435
11.61181835,3.304488182,-8.95154953,1.036092162
11.61657376,3.457628727,-9.123832703,1.404586911
11.62132913,3.672982693,-9.281759262,1.777867198
11.62608449,3.873979807,-9.370293617,2.091326952
11.63083991,4.048655987,-9.355937004,2.304288149
11.63559527,4.192225456,-9.351150513,2.433500528
11.64035064,4.278367043,-9.248259544,2.553141832
11.64510605,4.240081787,-9.145368576,2.627319336
11.64986142,4.096512318,-9.004191399,2.660818815
11.65461684,3.895515203,-8.906085968,2.612962246
11.6593722,3.594019651,-8.781659126,2.481357098
11.66412757,3.273381472,-8.642875671,2.27078867
11.66888298,2.998206854,-8.520841599,1.780260086
11.67363835,2.904886723,-8.377271652,1.045663476
11.67839371,3.000599623,-8.257631302,0.1052841991
11.68314913,3.314059258,-8.245666504,-0.8255237937
11.68790449,3.9625144,-8.188239098,-1.380658627
11.69265986,5.096712112,-8.116454124,-1.517049551
11.69741527,6.24766016,-8.032705307,-1.584048629
11.70217064,7.276573658,-7.89870739,-1.531406522
11.70692605,8.231309891,-7.819744587,-1.34237349
11.71168142,9.114261627,-7.755138397,-1.021735311
11.71643678,9.829715729,-7.72163868,-0.7106683254
11.7211922,10.45424175,-7.654639721,-0.5048855543
11.72594756,10.96630573,-7.601997375,-0.3445664644
11.73070293,11.38265705,-7.520641804,-0.1794617027
11.73545835,11.74397373,-7.410571575,-0.03349951655
11.74021371,11.94018459,-7.357929707,0.2321037948
11.74496908,11.79422283,-7.27178812,0.650847733
11.74972449,11.44726372,-7.228717327,1.170090318
11.75447986,11.15533924,-7.137789726,1.703689694
11.75923522,11.03569794,-7.092326164,2.143969059
11.76399064,11.04526901,-7.142575741,2.423929453
11.768746,11.14816093,-7.329215527,2.423929453
11.77350142,11.11466122,-7.623532772,2.139183521
11.77825678,10.74377346,-7.984848976,1.686939955
11.78301215,10.10010433,-8.300702095,1.261017561
11.78776757,9.391828537,-8.563912392,0.9619147182
11.79252293,8.762516975,-8.719446182,0.7393822074
11.79727829,8.329415321,-8.807980537,0.5599204898
11.80203371,8.015955925,-8.834300995,0.4450650215
11.80678908,7.831708431,-8.834300995,0.4115654826
11.81154444,7.812565804,-8.77448082,0.4977070987
11.81629986,7.805387497,-8.700303078,0.5742774606
11.82105522,7.678567886,-8.659625053,0.5312066078
11.82581059,7.467999458,-8.702695847,0.2512463629
11.830566,7.231110096,-8.762516975,-0.1651047617
11.83532137,6.979863644,-8.836693764,-0.6125625968
11.84007673,6.714260101,-8.932407379,-0.9308080077
11.84483215,6.482156754,-8.987442017,-1.179661512
11.84958751,6.24766016,-8.949156761,-1.34237349
11.85434288,6.099305153,-8.918049812,-1.452443361
11.85909829,6.072983742,-8.791230202,-1.507478237
11.86385366,6.171089649,-8.647661209,-1.476371527
11.86860902,6.28355217,-8.396414757,-1.404586911
11.87336444,6.42472887,-8.116454124,-1.268195987
11.8781198,6.606583118,-7.841279984,-1.16769743
11.88287517,6.723831654,-7.546962738,-1.067198873
11.88763059,6.802794933,-7.269395351,-0.9332008362
11.89238595,6.93679285,-6.946363926,-0.6125625968
11.89714137,7.077969551,-6.620940208,-0.1531406492
