Time (s),Acceleration x (m/s^2),Acceleration y (m/s^2),Acceleration z (m/s^2)
6.001889595,0.020205586344801213,1.4718708515613825,-0.6324083852496791
6.006665741,-0.03306812102171968,2.1743573980656574,0.31412856091160835
6.011428554,-0.12515863980221148,2.8027922470097795,1.255604764303459
6.016217981,-0.27971142385586056,3.3067375864885222,2.1752432964536283
6.020994127,-0.5168810740093392,3.641400801478203,3.057212357629516
6.025756939,-0.8519913387580679,3.7697079895592025,3.887162845429182
6.030546366,-1.2944317126005425,3.6640315589136914,4.652692555696386
6.035322512,-1.8468513967446727,3.3074936566807756,5.343715674197347
6.040085325,-2.504697492421841,2.6947846967857347,5.952721952762661
6.044874752,-3.2561278375064715,1.8324565652389846,6.474916620412378
6.049650897,-4.082310540678989,0.738672524200381,6.908239255008566
6.05441371,-4.95810282266385,-0.557580254441816,7.253266864239112
6.059203137,-5.853082156819043,-2.01778494600345,7.513012508910779
6.063979283,-6.732883861615586,-3.5956410235312983,7.69263536143302
6.068742095,-7.560782158496281,-5.2391834662876615,7.79908092841946
6.073531522,-8.299437148072116,-6.893175794757976,7.840671414342003
6.078307616,-8.912719030156282,-8.501660082638193,7.8266662038163455
6.083070481,-9.367514083817168,-10.010534621078703,7.7668116144489545
6.087859908,-9.635415377002431,-11.370023977978912,7.670897740226763
6.092636002,-9.694205765550764,-12.53690848217407,7.548338419139678
6.097398814,-9.529051913474445,-13.476391809380855,7.4077879929819614
6.102188293,-9.133345401868498,-14.163506249811729,7.2568055982339255
6.106964387,-8.509149008961854,-14.58398385473447,7.10157456415948
6.1117272,-7.667230641879702,-14.734555425372703,6.946681616509088
6.116516627,-6.6266916977953825,-14.622675212891792,6.794958469567072
6.121292772,-5.414218776235747,-14.26570421844346,6.647387244968936
6.126055585,-4.063006310818543,-13.689616401522413,6.50307076896271
6.130845012,-2.6114121370004764,-12.927317806831512,6.359268647075199
6.135621158,-1.1014180062837602,-12.016687251589538,6.211499627577574
6.14038397,0.4230273961405959,-10.998458146004168,6.0537099699286125
6.145173397,1.9177041064804123,-9.914064190465504,5.878506358075794
6.149949543,3.339779099176853,-8.80356750168671,5.677450359180146
6.154712356,4.649357209480975,-7.7037769611912745,5.441409487735183
6.159501783,5.8108641267587435,-6.646648371594603,5.160957584553728
6.164277929,6.7942123122652855,-5.658037678020604,4.826814545926684
6.169040741,7.575713654553271,-4.756855483079378,4.4303126186030015
6.173830168,8.138716238294133,-3.9546467655048847,3.9638737481688207
6.178606314,8.473955897510317,-3.2555954381291983,3.421480096039193
6.183369127,8.579625501291735,-2.6569303713043886,2.7991180860125486
6.188158554,8.461175668935642,-2.149688872621224,2.095175426663893
6.1929347,8.130869597389438,-1.7197763485510795,1.3107706197071864
6.197697512,7.607121876669784,-1.3492478090983784,0.4499955548117072
6.202486939,6.913656627439716,-1.0177285872331394,-0.4799460984957258
6.207263033,6.078524080081424,-0.7038883768070704,-1.4687188793532506
6.212025897,5.13301685595559,-0.3868843494396556,-2.5029639920672646
6.216815325,4.110527722921089,-0.04769529116765525,-3.566541316201106
6.22159147,3.0453895348859854,0.3297212414687338,-4.6409042913043566
6.226354283,1.9717355981583418,0.7575036296237281,-5.705600703567251
6.23114371,0.9224151538970692,1.2432323971325432,-6.738885856725363
6.235919804,-0.07200553368829238,1.7895711054934542,-7.718428095274777
6.240682616,-0.9841303894553419,2.3942084058226896,-8.622080439269826
6.245472095,-1.7904872389521334,3.050091517892099,-9.42868647607978
6.250248189,-2.47213034118222,3.7459264634009926,-10.118883971283424
6.255011002,-3.015078108232103,4.4669073361707765,-10.675866310887404
6.259800429,-3.410576490633146,5.195626323620775,-11.08606037454327
6.264576575,-3.655182871414794,5.913108612626858,-11.33968046361061
6.269339387,-3.750670159572075,6.59991212953015,-11.431122407033465
6.274128866,-3.70375630845183,7.237231491778403,-11.359170796424566
6.27890496,-3.525670672320355,7.807948456583441,-11.127005436505652
6.283667772,-3.2315750179941185,8.2975769893702,-10.742008986985638
6.2884572,-2.8398628869040885,8.695058992312687,-10.21539365615203
6.293233345,-2.3713656560954477,8.993375855467121,-9.561677906739549
6.297996158,-1.8484967189914328,9.18995064604786,-8.798052729624878
6.302785585,-1.2943667209973968,9.28682551861928,-7.943680733166837
6.307561731,-0.7319029564708492,9.290608577992021,-7.018970643425454
6.312324543,-0.18300507787193168,9.21219380962743,-6.044865815315627
6.31711397,0.3322326677137564,9.066266673515093,-5.042179101509597
6.321890116,0.7962052746616561,8.870616376049957,-4.0309989144320975
6.326652929,1.1943631045537644,8.645283497708004,-3.0301834179306133
6.331442356,1.515640882832006,8.41157834604239,-2.056952229396865
6.336218502,1.7527352248176147,8.191010895476033,-1.1265783669721203
6.340981314,1.9022220987093343,8.00417724237358,-0.2521778109031332
6.345770741,1.9645119520693701,7.869649946227904,0.5554098972298535
6.350546887,1.943646897764258,7.802920298291031,1.2876592354081902
6.3553097,1.8469510369002522,7.8154393881482935,1.9383253523731745
6.360099127,1.6845513095503484,7.913801851649214,2.503351778862235
6.36487522,1.4687918786264995,8.099111497523685,2.9807319601084945
6.369638085,1.2135697143180588,8.366561807376385,3.370337796269893
6.374427512,0.9336225509904035,8.7052567969021,3.673728264172211
6.379203606,0.6438025551296849,9.098289139253243,3.8939503546549634
6.383966418,0.35836971785643373,9.523083025875144,4.035342922520829
6.388755897,0.09033806171973296,9.95199924796992,4.1033516594427715
6.393531991,-0.14909479733219774,10.353189731199372,4.104360410114666
6.398294804,-0.3510082857210862,10.691678583825704,4.045540694890203
6.403084231,-0.5090887188697373,10.93063697540535,3.9347179062257602
6.407860377,-0.6198139535198037,11.032810203419864,3.7802496075432117
6.412623189,-0.6824858535388235,10.962047478708989,3.590909080516002
6.417412616,-0.699111481333403,10.684878607611916,3.3757660562021847
6.422188762,-0.6741419250901827,10.172077190004691,3.1440565992596774
6.426951575,-0.6140853209306129,9.400147471267191,2.9050354124519884
6.431741002,-0.52701747553037,8.352671808270637,2.6678062845963795
6.436517147,-0.4220191219531797,7.0214579870530525,2.441129807659265
6.44127996,-0.30857290991725456,5.407430434571382,2.2332115100559706
6.446069387,-0.19595550504147405,3.5212166866334154,2.051477721644672
6.450845533,-0.092660518981702,1.3833902012721782,1.9023501881117697
6.455608345,-0.005886361063724825,-0.9756574856970254,1.7910330089123125
6.460397772,0.05888051767360376,-3.5162285379127156,1.7213263033104624
6.465173918,0.09816208203489218,-6.190212718438649,1.6954798555756276
6.469936731,0.11064730933707384,-8.94234567129447,1.7140970901444206
6.474726158,0.09720412191191984,-11.711797585454358,1.7760957837954945
6.479502304,0.0607454679249699,-14.434042211089846,1.878727846280005
6.484265116,0.005960164987120679,-17.042941073119533,2.0176571152282157
6.489054543,-0.061071576913938226,-19.47296441276253,2.1870919622828318
6.493830689,-0.1333499212640497,-21.66145998991835,2.379968681131444
6.498593502,-0.2034802293252728,-23.550874480982397,2.5881815474180603
6.503382929,-0.2642131790123565,-25.090830581911618,2.8028550413767634
6.508159022,-0.308962144036163,-26.239966457617566,3.014652165446623
6.512921887,-0.332262986576738,-26.967452977326076,3.2141100916883647
6.517711314,-0.33014764776806793,-27.254118097106836,3.391991361012845
6.522487408,-0.30041119286500473,-27.093126204834803,3.5396365145517543
6.52725022,-0.2427610362487061,-26.490182083598857,3.6493028814147417
6.5320397,-0.1588458882384224,-25.463252845941685,3.7144741865850586
6.536815793,-0.052169857445517796,-24.041825095390283,3.7301263701636875
6.541578606,0.07209630042556218,-22.26573707925675,3.6929363938665567
6.546368085,0.20738982152681978,-20.183645251936703,3.601422900770749
6.551144179,0.3460961950784954,-17.85120031187262,3.4560104139903376
6.555906991,0.47993313623221057,-15.329018668749953,3.259012228932495
6.560696418,0.6003562859339265,-12.68054112183641,3.01453112201574
6.565472564,0.698965960748976,-9.969871308341304,2.728281248997414
6.570235377,0.7678966239283654,-7.259682515140579,2.407338826579022
6.575024804,0.8001737287183746,-4.60927329567383,2.0598330118065764
6.57980095,0.7900258502750781,-2.072840771173083,1.6945914866033112
6.584563762,0.7331433245782346,0.3019735595436965,1.320757401503041
6.589353189,0.6268777510037126,2.4752262526350366,0.9473954307160067
6.594129335,0.47037951994512683,4.415479490955856,0.5831047480455832
6.598892147,0.2646728948400009,6.100266529191339,0.23565586482217796
6.603681575,0.012670093019356028,7.516222497949576,-0.08833333863509779
6.60845772,-0.2808726897023974,8.658901068739372,-0.38366920657694886
6.613220533,-0.609453238166883,9.532308269272063,-0.6467908456685846
6.61800996,-0.9649704131371644,10.148192978152963,-0.8759076140072337
6.622786106,-1.337915100706999,10.525139183318984,-1.0710603262132183
6.627548918,-1.7175996033399141,10.687507992691733,-1.2341037044178413
6.632338345,-2.092420145461802,10.66427781172264,-1.3686103438684853
6.637114491,-2.4501473330218664,10.487829334939715,-1.4796991476499783
6.641877304,-2.7782395111898732,10.192718410190198,-1.5737937926228234
6.646666731,-3.0641739121837306,9.814474861038176,-1.658319303031533
6.651442825,-3.29579026077503,9.388459458849093,-1.7413472178724174
6.656205637,-3.4616411543239636,8.948804879588854,-1.831202103828255
6.660995116,-3.5513431136440334,8.52746008709132,-1.9360441889288103
6.66577121,-3.555921738801834,8.153351527072521,-2.063444517523891
6.670534075,-3.4681438968408793,7.851669101307489,-2.2199700759582615
6.675323502,-3.2828293022436847,7.643280358592442,-2.4107966500488813
6.680099595,-2.9971332276301976,7.544272856660582,-2.6393666482243328
6.684862408,-2.610791443526239,7.5656222968361,-2.9071077472515743
6.689651887,-2.126317922519555,7.71298278287385,-3.213226075123742
6.694427981,-1.5491454768566477,7.986595269903449,-3.5545848896152905
6.699190793,-0.8876994513418898,8.381310723089289,-3.9256765216535463
6.70398022,-0.15339496712321826,8.886725417140557,-4.3186919019719126
6.708756366,0.6394509101018657,9.487426871126514,-4.723688414171769
6.713519179,1.4737992511834666,10.163349822356533,-5.128853218904829
6.718308606,2.330166686799592,10.890242114046053,-5.520855661608613
6.723084752,3.187002533321058,11.640240160925067,-5.885279001366476
6.727847564,4.021164618379128,12.3825525803084,-6.207118567276076
6.732636991,4.808488888265708,13.084248521280886,-6.471330628588329
6.737413137,5.524443556006642,13.711144157840936,-6.663413795479992
6.74217595,6.144854013674608,14.228776777044034,-6.770002662512732
6.746965377,6.646680207258429,14.603451015163516,-6.779451679900713
6.751741522,7.008823879998016,14.803336291625167,-6.6823859507041306
6.756504335,7.212939250864771,14.799588682824176,-6.4721949603297615
6.761293762,7.244217542176429,14.567464781016279,-6.1454454012690105
6.766069908,7.092113561621414,14.087389976453194,-5.70219056740226
6.77083272,6.7509815480371165,13.345939581289015,-5.1461565379106675
6.775622147,6.220587947526676,12.336688745050123,-4.484789698436905
6.780398293,5.50647085256518,11.06088657627167,-3.7291559729114367
6.785161106,4.620119534798283,9.527911558988388,-2.8936891071132136
6.789950533,3.578952718363238,7.755469410682271,-1.9957928710863555
6.794726627,2.406080779643027,5.769501067976708,-1.055309437600435
6.799489491,1.1298447252376358,3.603777537898622,-0.09387279840008252
6.804278918,-0.21686657005316243,1.2991698545020882,0.8658285563606603
6.809055012,-1.597509950970135,-1.0974038586982457,1.8008515250554211
6.813817825,-2.972971463695228,-3.5343365637239574,2.6888300702251215
6.818607304,-4.3028085208926345,-5.956961088557449,3.508806420225609
6.823383397,-5.546609459075128,-8.30939740065772,4.242028993108417
6.82814621,-6.665419916795187,-10.536549306653836,4.872684606144777
6.832935637,-7.623177678332503,-12.586166293289285,5.388533896835221
6.837711783,-8.388092117884696,-14.410874144907586,5.781421374535465
6.842474595,-8.933902045185212,-15.970070668006901,6.047635268090066
6.847264022,-9.24094761768732,-17.231582078932682,6.188097358786886
6.852040168,-9.296998915676815,-18.172982753412867,6.208369116176326
6.856802981,-9.097795937655375,-18.78249642876721,6.118467328624257
6.861592408,-8.647271214616415,-19.059419547173185,5.932489682527288
6.866368554,-7.95744506126586,-19.01403514320681,5.668058228480245
6.871131366,-7.048002428881868,-18.667015990646615,5.345596405666093
6.875920793,-5.945577403489354,-18.048346105431026,4.9874632790177245
6.880696939,-4.682785237232526,-17.19581785057329,4.616976588114663
6.885459752,-3.29705178379761,-16.15318590273313,4.257363444010406
6.890249179,-1.8292963054449485,-14.968077808375847,3.9306831920647247
6.895025325,-0.3225261362042332,-13.689772847168545,3.6567704003835986
6.899788137,1.179598941910243,-12.366965960637339,3.4522468237207318
6.904577564,2.634178032475677,-11.045631601064763,3.3296495621883326
6.90935371,4.000406979530777,-9.767093969077326,3.296718706472098
6.914116522,5.2408004692679215,-8.566396064369258,3.35588183839197
6.91890595,6.322263945269871,-7.47104135536208,3.5039651571962414
6.923682095,7.216989094797483,-6.5001599289583005,3.7321520251963283
6.928444908,7.903154691525753,-5.664127053665599,4.026199635256258
6.933234335,8.365422058126969,-4.964637548188438,4.366913567219485
6.938010429,8.595221131384735,-4.395215521897382,4.730868556524512
6.942773293,8.590829040490974,-3.942117169069766,5.091352273925362
6.94756272,8.357248321960963,-3.5855654309841376,5.419497814011503
6.952338814,7.90589648822188,-3.3012403745979717,5.685560466763688
6.957101679,7.254122698653238,-3.061938723876217,5.860285784966119
6.961891106,6.424570756641815,-2.839310488222964,5.916309536456804
6.9666672,5.444410544542849,-2.605580125852063,5.829526344541295
6.971430012,4.344462276591369,-2.3351639367339567,5.580363021492643
6.976219491,3.1582395794864166,-2.0061039425946636,5.154894934316778
6.980995585,1.9209383971765799,-1.601250738384184,4.545749149290702
6.985758397,0.6683990715604128,-1.109142903442655,3.7527463575725104
6.990547825,-0.5639312749088011,-0.52454765099842,2.7832443428182807
6.99532397,-1.742009629238945,0.1513544639442454,1.6521585680435087
7.000086783,-2.8341558659597763,0.9111396846928921,0.38164979346691835
7.00487621,-3.8119353025282736,1.741647393802213,-0.9995161293625274
7.009652356,-4.650942385903098,2.6247879290237255,-2.456915671466288
7.014415168,-5.331464543111239,3.5386031905216875,-3.9516865866119413
7.019204595,-5.839007195697475,4.458520056220898,-5.441968767741658
7.023980741,-6.164663302305172,5.358728408724937,-6.884505031779821
7.028743554,-6.305313685019819,6.213610757245631,-8.23632985153881
7.033532981,-6.26364794701145,6.9991491856725325,-9.456467076144884
7.038309127,-6.0480001387707825,7.694237700974896,-10.507554670477134
7.043071939,-5.671998637614502,8.281833865721126,-11.357316605348878
7.047861366,-5.154036122065631,8.74989257727862,-11.979810244214361
7.052637512,-4.51657302861521,9.092036506815008,-12.356391895746066
7.057400325,-3.785296056115703,9.307931308635673,-12.476361943181026
7.062189752,-2.988161284017459,9.403348367039808,-12.33727120813297
7.066965897,-2.1543582824657084,9.389912696143623,-11.944889234675605
7.07172871,-1.3132364063143278,9.284547967545382,-11.312851460613564
7.076518137,-0.4932368758385165,9.108644033931474,-10.462015366172755
7.081294231,0.27912577400021865,8.886984378198767,-9.419565780581364
7.086057095,0.9801915383722233,8.646481324238492,-8.217916840388325
7.090846522,1.5899549099644854,8.414775302936313,-6.893462876016799
7.095622616,2.0927055757911233,8.218760710682618,-5.485232950880239
7.100385429,2.477485545320955,8.083104695226337,-4.033504034056797
7.105174908,2.7383465142063916,8.02882637299365,-2.5784259810119483
7.109951002,2.8744000268971535,8.072002423214434,-1.158707789764207
7.114713814,2.8896620234219954,8.222660727813615,0.18959077655191403
7.119503293,2.792702223673659,8.483916866471272,1.434124843220552
7.124279387,2.596117102998113,8.851399087691068,2.547157703141647
7.1290422,2.3158525632564113,9.312996212909601,3.5062603287838434
7.133831627,1.9704084756538605,9.848950218305383,4.294804104822803
7.138607772,1.5799618091110745,10.432301453110767,4.902241869165035
7.143370585,1.165447891964389,11.029680097143371,5.324179810484641
7.148160012,0.7476404120050758,11.602423048639434,5.562249308357867
7.152936158,0.34627004799435135,12.107981479111388,5.62379324192701
7.15769897,-0.020780798362254146,12.501571295409477,5.5213855887750665
7.162488397,-0.33817374993131444,12.73800719085166,5.2722063664207885
7.167264543,-0.5936727968665824,12.773651302371258,4.897296300766277
7.172027356,-0.7785441412936114,12.568400143496234,4.42071723533584
7.176816783,-0.8877841509746056,12.087628833606992,3.8686453998937336
7.181592929,-0.9201702109860476,11.304010002923032,3.268425371810864
7.186355741,-0.8781374940135512,10.199126334255219,2.647612973980493
7.191145168,-0.7674925851954959,8.764800610816167,2.0330354872701006
7.195921314,-0.5969822141458861,7.004075369665578,1.4498973709616916
7.200684127,-0.37774182120238753,4.931785699122697,0.9209590769354769
7.205473554,-0.12265405352612922,2.574683127596601,0.4658153736128019
7.2102497,0.15434874260704382,-0.028914454356762587,0.10029766401164845
7.215012512,0.4390016628236339,-2.8299528585056817,-0.1639782531805789
7.219801939,0.7174072054329022,-5.769937269472826,-0.31990209471793263
7.224578085,0.9766827727682169,-8.782658166544351,-0.3649860680280829
7.229340897,1.2055239878489739,-11.796291446738405,-0.30130590734101026
7.234130325,1.3946576023441999,-14.735797186022811,-0.1352710070231344
7.238906418,1.5371649555871008,-17.525524123482295,0.12276381146327738
7.243669231,1.6286653001421239,-20.091912869347368,0.4590260844110807
7.24845871,1.667357135009792,-22.366181278890643,0.8569694920830289
7.253234804,1.6539242433111472,-24.28687168206203,1.2980068833181535
7.257997616,1.5913207346517182,-25.802142694745285,1.7623037145142901
7.262787095,1.4844554124305531,-26.87169849986985,2.229601680895305
7.267563189,1.3397997375642838,-27.468265368136898,2.6800414580971283
7.272326002,1.164945411937899,-27.578547756389057,3.0949534740587605
7.277115429,0.9681374525338036,-27.20362306742627,3.457586772650019
7.281891575,0.7578071561296867,-26.358763214957563,3.753748217314387
7.286654387,0.5421272140631783,-25.072700432259595,3.972327316141674
7.291443814,0.3286088474221079,-23.386382176180327,4.10568585109407
7.29621996,0.12375816872834149,-21.351283613932292,4.149896408308578
7.300982772,-0.06719429637561802,-19.027364664930403,4.104819811757593
7.3057722,-0.24048107715664316,-16.480771215242292,3.9740180943436396
7.310548345,-0.3938970518885064,-13.78138684541185,3.7645066339481486
7.315311158,-0.5268102004410739,-11.000342514890525,3.4863560957737225
7.320100585,-0.6400878685438579,-8.20758761971098,3.1521615434060855
7.324876731,-0.7359463368583257,-5.469617280570567,2.7764021882245116
7.329639543,-0.8177344150075764,-2.8474383238085683,2.3747204056963853
7.33442897,-0.8896638607136631,-0.39484100669785693,1.9631525435430286
7.339205116,-0.9565006743519437,1.8429739491765187,1.5573464410237938
7.343967929,-1.0232318162033676,3.830381997310339,1.1718013434844987
7.348757356,-1.0947217959720756,5.5419226390150484,0.8191650105640519
7.35353345,-1.1753731093670292,6.962493761198579,0.5096203371728233
7.358296314,-1.268803842272127,8.087173620628473,0.25038986316859085
7.363085741,-1.3775550325560992,8.92070522987572,0.04538134817503791
7.367861835,-1.5028395774770618,9.476688621214771,-0.1050086024682098
7.3726247,-1.6443435533130153,9.77653404687625,-0.20392276907429643
7.377414127,-1.8000897053294338,9.848233522975036,-0.2579006190217565
