Time (s),X (m/s^2),Y (m/s^2),Z (m/s^2)
4.008932125,2.180964661,-9.539063416,1.204844513
4.018859125,2.11899353,-9.5525354,1.182690582
4.028786125,2.063758392,-9.570498047,1.12326416
4.038713125,1.993704071,-9.591454468,1.084045715
4.048640125,1.914518738,-9.605076141,1.087937622
4.058567125,1.880389709,-9.566007385,1.132993927
4.068494125,1.866169281,-9.524842987,1.22160965
4.078421125,1.889371033,-9.50927536,1.256187744
4.088348125,1.919757843,-9.512119446,1.253343658
4.098275125,1.987267456,-9.524992676,1.310824127
4.108202125,2.097288666,-9.577084351,1.373244324
4.118129125,2.215393066,-9.598789215,1.388213196
4.128056125,2.366129608,-9.586814117,1.332079926
4.137983125,2.507136383,-9.521250458,1.29645401
4.147909125,2.653681641,-9.427994385,1.264420624
4.157836125,2.775079193,-9.385033722,1.248703308
4.167763125,2.835703125,-9.367969208,1.208137665
4.177690125,2.808010712,-9.382189636,1.179996185
4.187617125,2.701881409,-9.420509949,1.150657196
4.197544125,2.602637787,-9.451495514,1.105151825
4.207471125,2.456391907,-9.472152557,1.145418091
4.217398125,2.292033691,-9.501341858,1.238674164
4.227325125,2.145338745,-9.495054932,1.34210907
4.237252125,2.064656525,-9.4543396,1.389859772
4.247179125,2.051334229,-9.42619812,1.383423157
4.257106125,2.063758392,-9.441915436,1.434766388
4.267033125,2.110461273,-9.500443726,1.501377869
4.276960125,2.185305634,-9.541907501,1.616937561
4.286887125,2.277813263,-9.552685089,1.621877289
4.296813125,2.345023499,-9.533375244,1.625619507
4.306740125,2.490820312,-9.477092285,1.60421402
4.316667125,2.632126465,-9.439670105,1.58774826
4.326594125,2.740800476,-9.446855164,1.481618958
4.336521125,2.841990051,-9.460776215,1.337768097
4.346448125,2.90530838,-9.478589172,1.309027863
4.356375125,2.871329041,-9.485774231,1.388961639
4.366302125,2.768193512,-9.470805359,1.424138489
4.376229125,2.679727478,-9.421408081,1.247056732
4.386156125,2.581531677,-9.367071075,1.093476105
4.396083125,2.47360611,-9.378297729,1.125808868
4.406010125,2.344574432,-9.423952789,1.167871399
4.415937125,2.238894196,-9.503287811,1.125808868
4.425864125,2.090552673,-9.611512756,1.044677582
4.435791125,2.001487885,-9.70940918,1.035097504
4.445717125,2.005679169,-9.706265717,1.068777466
4.455644125,1.995949402,-9.678872681,1.037342834
4.465571125,1.993704071,-9.585915985,0.9967771912
4.475498125,2.041155396,-9.51511322,1.016985168
4.485425125,2.163600769,-9.48008606,1.107247467
4.495352125,2.287692719,-9.435179443,1.150956573
4.505279125,2.313439178,-9.3946138,1.165925446
4.515206125,2.275118866,-9.388925629,1.170266418
4.525133125,2.226919098,-9.459578705,1.243314514
4.535060125,2.196831665,-9.553283844,1.368603973
4.544987125,2.155966644,-9.585915985,1.413360901
4.554914125,2.157463531,-9.566905518,1.435963898
4.564841125,2.219434662,-9.513466644,1.417701874
4.574768125,2.328707428,-9.457033997,1.345402222
4.584695125,2.409689026,-9.422605591,1.276096344
4.594621125,2.436932373,-9.411678314,1.291514282
4.604548125,2.42914856,-9.460327148,1.330283661
4.614475125,2.38109848,-9.544751587,1.2952565
4.624402125,2.293680267,-9.579928436,1.267264709
4.634329125,2.204166412,-9.534572754,1.333576813
4.644256125,2.108365631,-9.510173492,1.436562653
4.654183125,2.039957886,-9.510023804,1.513652344
4.664110125,2.02543808,-9.526639252,1.545536041
4.674037125,2.072440338,-9.536668396,1.544039154
4.683964125,2.150877228,-9.524842987,1.471589813
4.693891125,2.268083496,-9.473799133,1.437460785
4.703818125,2.403851166,-9.451794891,1.471739502
4.713745125,2.538870392,-9.459728394,1.547781372
4.723672125,2.651136932,-9.468410339,1.549727325
4.733598125,2.713706818,-9.453740845,1.426832886
4.743525125,2.719993744,-9.40284668,1.287472687
4.753452125,2.705773315,-9.386530609,1.222208405
4.763379125,2.671045532,-9.405541077,1.202000427
4.773306125,2.61985199,-9.437574463,1.197060699
4.783233125,2.557880859,-9.492210846,1.202748871
4.793160125,2.497705994,-9.507479095,1.121617584
4.803087125,2.438878326,-9.48936676,1.049018555
4.813014125,2.420616302,-9.455836487,1.075812836
4.822941125,2.431543579,-9.407187653,1.111438751
4.832868125,2.451452179,-9.352700958,1.148561554
4.842795125,2.459834747,-9.36183197,1.241069183
4.852722125,2.440225525,-9.403445435,1.320104828
4.862649125,2.41971817,-9.447004852,1.318757629
4.872575125,2.387235718,-9.507179718,1.277144165
4.882502125,2.323468323,-9.575886841,1.335822144
4.892429125,2.281256104,-9.61345871,1.429078217
4.902356125,2.254611511,-9.602830811,1.439855804
4.912283125,2.272873535,-9.576934662,1.372046814
4.922210125,2.327210541,-9.548044739,1.315464478
4.932137125,2.40564743,-9.522597656,1.340312805
4.942064125,2.474803619,-9.460027771,1.341360626
4.951991125,2.531385956,-9.376202087,1.341959381
4.961918125,2.531685333,-9.369166718,1.302740936
4.971845125,2.518812103,-9.385482788,1.288969574
4.981772125,2.499651947,-9.45778244,1.337019653
4.991699125,2.443069611,-9.53741684,1.404229889
5.001626125,2.376308441,-9.573791199,1.389261017
5.011552875,2.307152252,-9.572893066,1.321152649
5.021479875,2.267784119,-9.522298279,1.299447784
5.031405875,2.260449371,-9.476643219,1.29884903
5.041332875,2.241139526,-9.471254425,1.290765839
5.051259875,2.256258087,-9.463171234,1.309925995
5.061186875,2.284698944,-9.46601532,1.331630859
5.071113875,2.303410034,-9.494605865,1.325194244
5.081040875,2.308798828,-9.506730652,1.319057007
5.090967875,2.307751007,-9.501192169,1.322948914
5.100894875,2.299368439,-9.523645477,1.281485138
5.110821875,2.253114624,-9.562414856,1.241817627
5.120748875,2.182611237,-9.578730927,1.275497589
5.130675875,2.117945709,-9.604926453,1.319356384
5.140602875,2.049837341,-9.650431824,1.271006927
5.150529875,1.999841309,-9.653575287,1.188229065
5.160455875,2.006277924,-9.613758087,1.17939743
5.170382875,2.025138702,-9.566905518,1.174308014
5.180309875,2.036365356,-9.523645477,1.176403656
5.190236875,2.125729523,-9.477990417,1.118923187
5.200163875,2.217638397,-9.481283569,1.079555054
5.210090875,2.317331085,-9.479038239,1.093027039
5.220017875,2.376009064,-9.488468628,1.133592682
5.229944875,2.433339844,-9.485474854,1.146016846
5.239871875,2.47704895,-9.507628784,1.207239532
5.249798875,2.474504242,-9.514215088,1.301842804
5.259725875,2.477348328,-9.491612091,1.326541443
5.269652875,2.451452179,-9.487121429,1.350042572
5.279579875,2.415377197,-9.496851196,1.351539459
5.289506875,2.385738831,-9.488468628,1.304986267
5.299433875,2.37526062,-9.495953064,1.273551636
5.309359875,2.368674316,-9.502988434,1.241967316
5.319286875,2.359393616,-9.499395905,1.284029846
5.329213875,2.362237701,-9.476942596,1.338217163
5.339140875,2.345322876,-9.469158783,1.309476929
5.349067875,2.330653381,-9.462422791,1.256187744
5.358994875,2.340981903,-9.450597382,1.27894043
5.368921875,2.326761475,-9.460027771,1.332229614
5.378848875,2.318378906,-9.472751312,1.318607941
5.388775875,2.343376923,-9.486672363,1.283131714
5.398702875,2.359692993,-9.493707733,1.30932724
5.408629875,2.36822525,-9.49640213,1.386267242
5.418556875,2.378553772,-9.496102753,1.432670746
5.428483875,2.367476807,-9.492360535,1.469045105
5.438409875,2.336042175,-9.486971741,1.489702148
5.448336875,2.306104431,-9.470206604,1.467997284
5.458263875,2.286046143,-9.439520416,1.502874756
5.468190875,2.269430695,-9.434431,1.514999542
5.478117875,2.262844391,-9.44146637,1.41695343
5.488044875,2.278561707,-9.441166992,1.375040588
5.497971875,2.309247894,-9.485025787,1.390159149
5.507898875,2.343227234,-9.555080109,1.414708099
5.517825875,2.352807312,-9.563762054,1.38536911
5.527752875,2.366428986,-9.545050964,1.325194244
5.537679875,2.393822021,-9.505084076,1.283431091
5.547606875,2.437830505,-9.470955048,1.267564087
5.557533875,2.456840973,-9.472451935,1.217717743
5.567460875,2.47824646,-9.485025787,1.211879883
5.577387875,2.45714035,-9.522597656,1.255888367
5.587313875,2.419568481,-9.54669754,1.230590973
5.597240875,2.397414551,-9.530830536,1.181044006
5.607167875,2.401755524,-9.48233139,1.173858948
5.617094875,2.397115173,-9.447753296,1.199904785
5.627021875,2.405497742,-9.447004852,1.184935913
5.636948875,2.429747314,-9.465117188,1.154549103
5.646875875,2.450404358,-9.479187927,1.182241516
5.656802875,2.448159027,-9.471104736,1.206191711
5.666729875,2.455942841,-9.448950806,1.218915253
5.676656875,2.463876343,-9.432934113,1.27654541
5.686583875,2.491568756,-9.413474579,1.38536911
5.696510875,2.519560547,-9.436077576,1.411414948
5.706437875,2.526745605,-9.441166992,1.391805725
5.716363875,2.521805878,-9.437424774,1.347497864
5.726290875,2.49935257,-9.450298004,1.338965607
5.736217875,2.469265137,-9.455986176,1.396146698
5.746144875,2.401156769,-9.483229523,1.444196777
5.756071875,2.336491241,-9.477840729,1.383572845
5.765998875,2.286495209,-9.479786682,1.334325256
5.775925875,2.24652832,-9.509724426,1.394051056
5.785852875,2.263892212,-9.546847229,1.435514832
5.795779875,2.267933807,-9.570647736,1.412612457
5.805706875,2.269281006,-9.566157074,1.377285919
5.815633875,2.318079529,-9.502689056,1.364562378
5.825560875,2.371668091,-9.449100494,1.369651794
5.835487875,2.450853424,-9.389524384,1.334175568
5.845413875,2.510279846,-9.368118896,1.276246033
5.855340875,2.506837006,-9.382339325,1.245410156
5.865267875,2.497406616,-9.415869598,1.283880157
5.875194875,2.453547821,-9.476643219,1.322799225
5.885121875,2.402653656,-9.52454361,1.283880157
5.895048875,2.373913422,-9.553283844,1.307381287
5.904975875,2.338886261,-9.577234039,1.301992493
5.914902875,2.315983887,-9.571994934,1.24735611
5.924829875,2.308499451,-9.544901276,1.204245758
5.934756875,2.297422485,-9.526639252,1.212478638
5.944683875,2.325863342,-9.527088318,1.259630585
5.954610875,2.351609802,-9.515562286,1.352287903
5.964537875,2.356100464,-9.482481079,1.386117554
5.974463875,2.381547546,-9.44146637,1.334924011
5.984390875,2.399659882,-9.394464111,1.274150391
5.994317875,2.422562256,-9.394314423,1.267414398
6.004244875,2.399210815,-9.430239716,1.324894867
6.01417125,2.356848907,-9.492510223,1.355431366
6.02409825,2.333946533,-9.506580963,1.30109436
6.03402525,2.32257019,-9.502988434,1.262025604
6.04395225,2.306703186,-9.498647461,1.281634827
6.05387925,2.318079529,-9.492809601,1.323248291
6.06380625,2.321222992,-9.516759796,1.385518799
6.07373325,2.304457855,-9.532327423,1.370998993
6.08366025,2.316133575,-9.526339874,1.376088409
6.09358725,2.309098206,-9.502090302,1.369951172
6.10351325,2.312990112,-9.505084076,1.320104828
6.11344025,2.3436763,-9.480984192,1.283131714
6.12336725,2.343227234,-9.486672363,1.277144165
6.13329425,2.321073303,-9.484277344,1.313219147
6.14322125,2.292931824,-9.480385437,1.33971405
6.15314825,2.284698944,-9.504784698,1.347797241
6.16307525,2.276316376,-9.529932404,1.307381287
6.17300225,2.271825714,-9.50583252,1.250050507
6.18292925,2.272873535,-9.504784698,1.203048248
6.19285625,2.263592834,-9.51631073,1.239422607
6.20278325,2.260299683,-9.525441742,1.324445801
6.21271025,2.235900421,-9.511969757,1.37713623
6.22263725,2.243384857,-9.504185944,1.325792999
6.23256325,2.274071045,-9.497899017,1.309476929
6.24249025,2.283052368,-9.500294037,1.306034088
6.25241725,2.298769684,-9.522747345,1.319506073
6.26234425,2.333497467,-9.532626801,1.318757629
6.27227125,2.364333344,-9.501192169,1.280137939
6.28219825,2.427651672,-9.456435242,1.237326965
6.29212525,2.466720428,-9.466464386,1.328786774
6.30205225,2.482737122,-9.488318939,1.407822418
6.31197925,2.461780701,-9.499395905,1.384021912
6.32190625,2.443219299,-9.469907227,1.310973816
6.33183325,2.410736847,-9.443861389,1.269959106
6.34176025,2.379302216,-9.430988159,1.304836578
6.35168725,2.365081787,-9.434880066,1.357377319
6.36161325,2.359842682,-9.451345825,1.403481445
6.37154025,2.341281281,-9.483379211,1.365161133
6.38146725,2.328707428,-9.508377228,1.338965607
6.39139425,2.334694977,-9.486522675,1.291963348
6.40132125,2.335742798,-9.49176178,1.333127747
6.41124825,2.312391357,-9.538314972,1.407523041
6.42117525,2.282752991,-9.564959564,1.386267242
6.43110225,2.259850616,-9.576335907,1.347797241
6.44102925,2.257754974,-9.554331665,1.320853271
6.45095625,2.243534546,-9.530231781,1.343905334
6.46088325,2.255210266,-9.480984192,1.36785553
6.47081025,2.287692719,-9.458381195,1.322499847
6.48073625,2.291734314,-9.457483063,1.280137939
6.49066325,2.31328949,-9.44730423,1.316512299
6.50059025,2.328108673,-9.48816925,1.352886658
6.51051725,2.337539063,-9.521549835,1.322649536
6.52044425,2.366578674,-9.53741684,1.322050781
6.53037125,2.389181671,-9.541009369,1.359922028
6.54029825,2.420167236,-9.525441742,1.336570587
6.55022525,2.454146576,-9.480984192,1.329834595
6.56015225,2.467917938,-9.441915436,1.284927979
6.57007925,2.492017822,-9.426946564,1.283131714
6.58000625,2.529140625,-9.415420532,1.319057007
6.58993325,2.518213348,-9.441915436,1.291514282
6.59985925,2.489024048,-9.445807343,1.215173035
6.60978625,2.452350311,-9.442514191,1.220112762
6.61971325,2.37990097,-9.457632751,1.267564087
6.62964025,2.322420502,-9.495054932,1.299298096
6.63956725,2.280058594,-9.520352325,1.330133972
6.64949425,2.279759216,-9.561816101,1.373843079
6.65942125,2.288890228,-9.563013611,1.39943985
6.66934825,2.343077545,-9.545799408,1.40991806
6.67927525,2.381397858,-9.511371002,1.346899109
6.68920225,2.413730621,-9.478738861,1.311123505
6.69912925,2.420466614,-9.462123413,1.339414673
6.70905625,2.378553772,-9.45658493,1.362616425
6.71898225,2.332599335,-9.447902985,1.349294128
6.72890925,2.309247894,-9.442963257,1.326391754
6.73883625,2.278412018,-9.460925903,1.319655762
6.74876325,2.252964935,-9.489965515,1.393003235
6.75869025,2.234253845,-9.51511322,1.424138489
6.76861725,2.249522095,-9.52095108,1.394051056
6.77854425,2.284698944,-9.51631073,1.380130005
6.78847125,2.332898712,-9.513316956,1.384620667
6.79839825,2.378254395,-9.513766022,1.41815094
6.80832525,2.401456146,-9.49520462,1.396146698
6.81825225,2.414179688,-9.478140106,1.317410431
6.82817925,2.416724396,-9.45314209,1.315015411
6.83810525,2.414628754,-9.441915436,1.354533234
6.84803225,2.411634979,-9.455387421,1.36201767
6.85795925,2.421065369,-9.453890533,1.306333466
6.86788625,2.421813812,-9.445058899,1.285676422
6.87781325,2.41627533,-9.455387421,1.287622375
6.88774025,2.385888519,-9.463021545,1.259929962
6.89766725,2.373614044,-9.480385437,1.302591248
6.90759425,2.375410309,-9.513766022,1.335522766
6.91752125,2.357597351,-9.513316956,1.322350159
6.92744825,2.355501709,-9.501491547,1.315314789
6.93737525,2.363884277,-9.495354309,1.276844788
6.94730225,2.378553772,-9.487420807,1.253044281
6.95722825,2.395917664,-9.484576721,1.300046539
6.96715525,2.402354279,-9.470206604,1.33387619
6.97708225,2.406395874,-9.448801117,1.32339798
6.98700925,2.405946808,-9.449998627,1.300345917
6.99693625,2.392025757,-9.472152557,1.355581055
7.00686325,2.372416534,-9.484576721,1.407073975
7.016790625,2.347717896,-9.500593414,1.385219421
7.026717625,2.312840424,-9.512718201,1.361119537
7.036644625,2.277214508,-9.501790924,1.440454559
7.046571625,2.255210266,-9.499994659,1.477277985
7.056498625,2.2547612,-9.486822052,1.475930786
7.066425625,2.264790344,-9.481133881,1.424737244
7.076351625,2.274969177,-9.493857422,1.351389771
7.086278625,2.267933807,-9.511221313,1.403930511
7.096205625,2.250719604,-9.507030029,1.466201019
7.106132625,2.24652832,-9.512269135,1.419049072
7.116059625,2.254611511,-9.497300262,1.357976074
7.125986625,2.257605286,-9.486522675,1.323547668
7.135913625,2.293680267,-9.486073608,1.300196228
7.145840625,2.319277039,-9.462422791,1.278641052
7.155767625,2.352507935,-9.4437117,1.259929962
7.165694625,2.385140076,-9.426497498,1.308279419
7.175621625,2.431842957,-9.44146637,1.336420898
7.185548625,2.455344086,-9.467362518,1.35962265
7.195474625,2.477198639,-9.500294037,1.397493896
7.205401625,2.481090546,-9.531878357,1.410516815
7.215328625,2.459984436,-9.527836761,1.352886658
7.225255625,2.434088287,-9.477990417,1.31756012
7.235182625,2.406246185,-9.457483063,1.352287903
7.245109625,2.375410309,-9.472451935,1.358724518
7.255036625,2.349065094,-9.512568512,1.316512299
7.264963625,2.343825989,-9.530531158,1.307830353
7.274890625,2.316133575,-9.517657928,1.281335449
7.284817625,2.27227478,-9.482780457,1.284478912
7.294744625,2.251018982,-9.454938354,1.325194244
7.304671625,2.288291473,-9.450298004,1.395547943
7.314597625,2.33319809,-9.491612091,1.400487671
7.324524625,2.355052643,-9.507329407,1.326242065
7.334451625,2.397863617,-9.491612091,1.343007202
7.344378625,2.421813812,-9.499994659,1.464105377
7.354305625,2.407892761,-9.49759964,1.494043121
7.364232625,2.423759766,-9.492210846,1.384620667
7.374159625,2.427352295,-9.472451935,1.266965332
7.384086625,2.427801361,-9.453291779,1.290017395
7.394013625,2.400258636,-9.462722168,1.384620667
7.403940625,2.369123383,-9.467661896,1.351838837
7.413867625,2.348616028,-9.486223297,1.329834595
7.423793625,2.336491241,-9.50104248,1.356628876
7.433720625,2.314037933,-9.498946838,1.338217163
7.443647625,2.30161377,-9.467661896,1.288969574
7.453574625,2.325563965,-9.472002869,1.300944672
7.463501625,2.363435211,-9.507928162,1.354832611
7.473428625,2.385738831,-9.511520691,1.381028137
7.483355625,2.381996613,-9.493108978,1.379082184
7.493282625,2.365830231,-9.473499756,1.364412689
7.503209625,2.362088013,-9.477990417,1.371597748
7.513136625,2.363884277,-9.483678589,1.36785553
7.523063625,2.356699219,-9.484576721,1.372944946
7.532990625,2.337688751,-9.477391663,1.39824234
7.542916625,2.314037933,-9.471254425,1.343156891
7.552843625,2.3038591,-9.468560028,1.263073425
7.562770625,2.320624237,-9.455686798,1.309476929
7.572697625,2.328707428,-9.455986176,1.395248566
7.582624625,2.328557739,-9.476792908,1.414558411
7.592551625,2.361489258,-9.475296021,1.403780823
7.602478625,2.37406311,-9.478439484,1.353186035
7.612405625,2.380948792,-9.467661896,1.32339798
7.622332625,2.36942276,-9.486223297,1.419498138
7.632259625,2.337239685,-9.542955322,1.459165649
7.642186625,2.319576416,-9.571096802,1.385069733
7.652113625,2.301164703,-9.559720459,1.34555191
7.662039625,2.270628204,-9.506880341,1.34210907
7.671966625,2.276615753,-9.456285553,1.373394012
7.681893625,2.29682373,-9.43787384,1.395997009
7.691820625,2.329755249,-9.44490921,1.345402222
7.701747625,2.375410309,-9.446555786,1.282832336
7.711674625,2.397115173,-9.456435242,1.315763855
7.721601625,2.39756424,-9.444759521,1.41111557
7.731528625,2.39980957,-9.448352051,1.402583313
7.741455625,2.417921906,-9.444011078,1.347198486
7.751382625,2.432142334,-9.447453918,1.318607941
7.761309625,2.447709961,-9.463470612,1.359772339
7.771235625,2.430046692,-9.514664154,1.372944946
7.781162625,2.397713928,-9.551936646,1.328337708
7.791089625,2.374811554,-9.537566528,1.281485138
7.801016625,2.352358246,-9.532028046,1.309776306
7.810943625,2.34487381,-9.500294037,1.36665802
7.820870625,2.36702774,-9.467512207,1.327738953
7.830797625,2.383792877,-9.451196136,1.298998718
7.840724625,2.381996613,-9.465715942,1.343755646
7.850651625,2.343825989,-9.471104736,1.364113312
7.860578625,2.308798828,-9.480235748,1.379680939
7.870505625,2.261197815,-9.484876099,1.364861755
7.880432625,2.253114624,-9.472901001,1.334774323
7.890358625,2.276016998,-9.474248199,1.348695374
7.900285625,2.30041626,-9.489067383,1.382674713
7.910212625,2.345023499,-9.492659912,1.410367126
7.920139625,2.37526062,-9.490414581,1.413959656
7.930066625,2.382146301,-9.499395905,1.410666504
7.939993625,2.362836456,-9.511071625,1.450633392
7.949920625,2.359393616,-9.52798645,1.454525299
7.959847625,2.348765717,-9.518106995,1.412013702
7.969774625,2.333647156,-9.482930145,1.329834595
7.979701625,2.356399841,-9.43907135,1.289718018
7.989628625,2.358645172,-9.451046448,1.336720276
7.999555625,2.378703461,-9.472302246,1.360670471
8.009482375,2.35190918,-9.500892792,1.312021637
8.019409375,2.306852875,-9.507179718,1.264720001
8.029336375,2.26883194,-9.498048706,1.266516266
8.039263375,2.2547612,-9.50463501,1.344055023
8.049190375,2.265538788,-9.531279602,1.438807983
8.059117375,2.341430969,-9.546996918,1.405726776
8.069044375,2.40100708,-9.528585205,1.338217163
8.078971375,2.44202179,-9.496701508,1.351838837
8.088898375,2.456242218,-9.447154541,1.34330658
