"Time (s)","Acceleration x (m/s^2)","Acceleration y (m/s^2)","Acceleration z (m/s^2)"
1.834559700E-2,-1.074996591E0,3.785232782E0,8.947430611E0
2.033459700E-2,-1.122880578E0,3.883395195E0,8.892364502E0
2.234559700E-2,-1.139639974E0,3.957615376E0,8.844480515E0
2.435109700E-2,-1.146822572E0,4.017470360E0,8.806173325E0
2.635476300E-2,-1.132457376E0,4.058171749E0,8.782231331E0
2.835751300E-2,-1.113303781E0,4.089296341E0,8.765471458E0
3.035971300E-2,-1.089361787E0,4.106055737E0,8.760683060E0
3.236154600E-2,-1.060631394E0,4.106055737E0,8.763077736E0
3.436311700E-2,-1.034295082E0,4.101267338E0,8.770259857E0
3.636449200E-2,-1.012747288E0,4.084507942E0,8.782231331E0
3.836449200E-2,-9.959878922E-1,4.055777550E0,8.803778648E0
4.036299200E-2,-9.864110947E-1,4.029441357E0,8.827720642E0
4.236408200E-2,-9.888052940E-1,4.000710964E0,8.861239433E0
4.436283200E-2,-9.959878922E-1,3.969586372E0,8.901941299E0
4.636375500E-2,-1.005564690E0,3.933673382E0,8.942642212E0
4.836461200E-2,-1.015141487E0,3.897760391E0,8.988132477E0
5.036661200E-2,-1.015141487E0,3.861847401E0,9.036016464E0
5.236736200E-2,-1.012747288E0,3.833117008E0,9.081506729E0
5.436800900E-2,-1.007958889E0,3.804386616E0,9.126996040E0
5.636862000E-2,-1.003170490E0,3.780444384E0,9.167697906E0
5.836919800E-2,-9.888052940E-1,3.761290789E0,9.206005096E0
6.036934800E-2,-9.672574997E-1,3.749319792E0,9.239523888E0
6.236987100E-2,-9.433154464E-1,3.739742994E0,9.268254280E0
6.437037100E-2,-9.074024558E-1,3.734954596E0,9.289801598E0
6.637084900E-2,-8.595184088E-1,3.737348795E0,9.304166794E0
6.837130700E-2,-8.116343617E-1,3.739742994E0,9.313743591E0
7.037174700E-2,-7.565677166E-1,3.742137194E0,9.313743591E0
7.237217000E-2,-6.967126727E-1,3.742137194E0,9.304166794E0
7.437257700E-2,-6.440402865E-1,3.739742994E0,9.289801598E0
7.637296900E-2,-5.913678408E-1,3.739742994E0,9.263465881E0
7.837334800E-2,-5.458779931E-1,3.737348795E0,9.225158691E0
8.037371400E-2,-5.051765442E-1,3.737348795E0,9.186851501E0
8.237371400E-2,-4.740519226E-1,3.732560396E0,9.141361237E0
8.437371400E-2,-4.477157295E-1,3.727771997E0,9.098265648E0
8.637374700E-2,-4.357447028E-1,3.725377798E0,9.059958458E0
8.837378000E-2,-4.381389022E-1,3.718195200E0,9.021651268E0
9.037381300E-2,-4.477157295E-1,3.713406801E0,8.988132477E0
9.237384600E-2,-4.716577232E-1,3.711012602E0,8.954613686E0
9.437387900E-2,-5.075707436E-1,3.706224203E0,8.923488617E0
9.637391200E-2,-5.458779931E-1,3.703830004E0,8.894758224E0
9.837431200E-2,-5.913678408E-1,3.706224203E0,8.868422508E0
1.003752120E-1,-6.392518282E-1,3.715801001E0,8.839692116E0
1.023751780E-1,-6.823474765E-1,3.727771997E0,8.813355446E0
1.043760440E-1,-7.230489254E-1,3.742137194E0,8.779836655E0
1.063760100E-1,-7.589619160E-1,3.756502390E0,8.751106262E0
1.083759760E-1,-7.876923680E-1,3.773261786E0,8.715193748E0
1.103753420E-1,-8.068459630E-1,3.792415380E0,8.669703484E0
1.123753080E-1,-8.236053586E-1,3.813963413E0,8.624214172E0
1.143753080E-1,-8.283938169E-1,3.835511208E0,8.566753387E0
1.163753080E-1,-8.307880163E-1,3.852270603E0,8.502109528E0
1.183753410E-1,-8.307880163E-1,3.864241600E0,8.442254066E0
1.203756410E-1,-8.307880163E-1,3.876212597E0,8.380004883E0
1.223756740E-1,-8.331822157E-1,3.885789394E0,8.322544098E0
1.243757070E-1,-8.355764151E-1,3.892971992E0,8.274660110E0
1.263757400E-1,-8.379706144E-1,3.895366192E0,8.236352921E0
1.283757730E-1,-8.451532125E-1,3.897760391E0,8.210017204E0
1.303758060E-1,-8.547300100E-1,3.897760391E0,8.193257332E0
1.323758060E-1,-8.667010069E-1,3.895366192E0,8.186075211E0
1.343758060E-1,-8.762778044E-1,3.892971992E0,8.181286812E0
1.363758060E-1,-8.858546019E-1,3.892971992E0,8.186075211E0
1.383758060E-1,-8.930372596E-1,3.892971992E0,8.200440407E0
1.403758060E-1,-8.978256583E-1,3.895366192E0,8.217199326E0
1.423758060E-1,-9.002198577E-1,3.907337189E0,8.238747597E0
1.443758060E-1,-8.954314590E-1,3.921702385E0,8.262689590E0
1.463757720E-1,-8.906430602E-1,3.936067581E0,8.284236908E0
1.483757380E-1,-8.858546019E-1,3.952826977E0,8.308178902E0
1.503757040E-1,-8.834604025E-1,3.967192173E0,8.332120895E0
1.523755040E-1,-8.810662031E-1,3.979163170E0,8.353669167E0
1.543754700E-1,-8.762778044E-1,3.988739967E0,8.375216484E0
1.563754360E-1,-8.667010069E-1,3.988739967E0,8.389581680E0
1.583760690E-1,-8.547300100E-1,3.988739967E0,8.401553154E0
1.603760350E-1,-8.403648138E-1,3.991134167E0,8.413523674E0
1.623760350E-1,-8.259995580E-1,3.995922565E0,8.420706749E0
1.643760680E-1,-8.020575643E-1,4.000710964E0,8.423100471E0
1.663761010E-1,-7.733271718E-1,4.005499363E0,8.425495148E0
1.683761340E-1,-7.469909191E-1,4.007893562E0,8.425495148E0
1.703761670E-1,-7.206547260E-1,4.019864559E0,8.423100471E0
1.723762000E-1,-6.943184733E-1,4.039018154E0,8.420706749E0
1.743762330E-1,-6.727706790E-1,4.058171749E0,8.420706749E0
1.763762660E-1,-6.512228847E-1,4.077325344E0,8.430283546E0
1.783762660E-1,-6.296750307E-1,4.101267338E0,8.442254066E0
1.803762320E-1,-6.105214357E-1,4.125209332E0,8.456619263E0
1.823761980E-1,-5.961562395E-1,4.151545525E0,8.475772858E0
1.843761640E-1,-5.817909837E-1,4.177882195E0,8.494926453E0
1.863761300E-1,-5.674257874E-1,4.206612587E0,8.509291649E0
1.883760960E-1,-5.530605912E-1,4.237737179E0,8.521263123E0
1.903760620E-1,-5.434837937E-1,4.266467571E0,8.530839920E0
1.923760620E-1,-5.363011956E-1,4.295197964E0,8.538022995E0
1.943760620E-1,-5.410895944E-1,4.321534157E0,8.545205116E0
1.963760950E-1,-5.530605912E-1,4.340687752E0,8.547599792E0
1.983761280E-1,-5.770025849E-1,4.343081951E0,8.549993515E0
2.003761610E-1,-6.009446383E-1,4.307168961E0,8.559570312E0
2.023761940E-1,-6.200982332E-1,4.254496574E0,8.571541786E0
2.043762270E-1,-6.416460276E-1,4.168305397E0,8.588300705E0
2.063762600E-1,-6.607996821E-1,4.072536945E0,8.609848976E0
2.083762930E-1,-6.775590777E-1,3.988739967E0,8.629002571E0
2.103762930E-1,-6.919242740E-1,3.909731388E0,8.643367767E0
2.123764590E-1,-7.062895298E-1,3.845088005E0,8.655338287E0
2.143764590E-1,-7.206547260E-1,3.794809580E0,8.672098160E0
2.163764590E-1,-7.398083210E-1,3.758896589E0,8.696040154E0
2.183768590E-1,-7.613561153E-1,3.739742994E0,8.724770546E0
2.203768590E-1,-7.852981687E-1,3.727771997E0,8.753500938E0
2.223768590E-1,-8.092401624E-1,3.722983599E0,8.787019730E0
2.243768250E-1,-8.236053586E-1,3.720589399E0,8.815750122E0
2.263767910E-1,-8.331822157E-1,3.720589399E0,8.834903717E0
2.283767570E-1,-8.403648138E-1,3.713406801E0,8.849268913E0
2.303767230E-1,-8.427590132E-1,3.706224203E0,8.863634109E0
2.323766890E-1,-8.355764151E-1,3.706224203E0,8.873210907E0
2.343766550E-1,-8.164227605E-1,3.713406801E0,8.880393028E0
2.363766210E-1,-7.948749661E-1,3.722983599E0,8.887576103E0
2.383765870E-1,-7.709329724E-1,3.737348795E0,8.897152901E0
2.403765870E-1,-7.493851185E-1,3.756502390E0,8.906729698E0
2.423766200E-1,-7.278373241E-1,3.782838583E0,8.916306496E0
2.443766530E-1,-7.062895298E-1,3.816357613E0,8.918700218E0
2.463766860E-1,-6.895300746E-1,3.849876404E0,8.916306496E0
2.483767190E-1,-6.751648784E-1,3.885789394E0,8.899546623E0
2.503767520E-1,-6.560112834E-1,3.926490784E0,8.866027832E0
2.523767850E-1,-6.416460276E-1,3.962403774E0,8.830115318E0
2.543768180E-1,-6.272808313E-1,3.998316765E0,8.794201851E0
2.563768180E-1,-6.129156351E-1,4.029441357E0,8.760683060E0
2.583767840E-1,-5.961562395E-1,4.060565948E0,8.736741066E0
2.603767500E-1,-5.793967843E-1,4.084507942E0,8.717587471E0
2.623767160E-1,-5.578489900E-1,4.096478939E0,8.712799072E0
2.643766820E-1,-5.386953950E-1,4.106055737E0,8.712799072E0
2.663766480E-1,-5.219359994E-1,4.113238335E0,8.722375870E0
2.683766140E-1,-5.051765442E-1,4.115632534E0,8.731952667E0
2.703766140E-1,-4.812345505E-1,4.089296341E0,8.743924141E0
2.723766140E-1,-4.453215301E-1,4.019864559E0,8.758289337E0
2.743766470E-1,-4.118026793E-1,3.948038578E0,8.775048256E0
2.763766800E-1,-3.998316824E-1,3.881000996E0,8.815750122E0
2.783754460E-1,-4.213795066E-1,3.823540211E0,8.889969826E0
2.803754790E-1,-4.572925270E-1,3.775655985E0,8.966584206E0
2.823755120E-1,-5.219359994E-1,3.725377798E0,9.057564735E0
2.843755450E-1,-6.177040339E-1,3.672705412E0,9.165303230E0
2.863755780E-1,-7.158663273E-1,3.617638826E0,9.270648003E0
2.883755780E-1,-8.331822157E-1,3.536235809E0,9.399934769E0
2.903755780E-1,-9.624691010E-1,3.442862034E0,9.538799286E0
2.923755780E-1,-1.074996591E0,3.277662039E0,9.663297653E0
2.943755780E-1,-1.173158884E0,3.035847664E0,9.785401344E0
2.963755780E-1,-1.247379065E0,2.796427488E0,9.893140793E0
2.983751780E-1,-1.271321058E0,2.552218914E0,9.996091843E0
3.003751780E-1,-1.254561663E0,2.348711967E0,1.006791782E1
3.023751440E-1,-1.225831270E0,2.197877169E0,1.011819553E1
3.043751100E-1,-1.182735682E0,2.121262789E0,1.014213753E1
3.063750760E-1,-1.144428372E0,2.123656988E0,1.015171432E1
3.083750420E-1,-1.118092179E0,2.161964178E0,1.015889740E1
3.103750080E-1,-1.106121182E0,2.267308950E0,1.018762779E1
3.123749740E-1,-1.103726983E0,2.413355350E0,1.024987698E1
3.143749400E-1,-1.106121182E0,2.554613113E0,1.031691456E1
3.163749060E-1,-1.108515382E0,2.703053713E0,1.038874054E1
3.183749060E-1,-1.106121182E0,2.839523315E0,1.045338345E1
3.203749390E-1,-1.103726983E0,2.952050686E0,1.050366211E1
3.223749720E-1,-1.096544385E0,3.035847664E0,1.052281570E1
3.243750050E-1,-1.089361787E0,3.095702887E0,1.052521038E1
3.263750380E-1,-1.086967587E0,3.131615877E0,1.049408531E1
3.283750710E-1,-1.094150186E0,3.136404276E0,1.042465305E1
3.303749370E-1,-1.103726983E0,3.131615877E0,1.035043335E1
3.323749700E-1,-1.122880578E0,3.122039080E0,1.025466537E1
3.343749700E-1,-1.154005170E0,3.112462282E0,1.014453220E1
3.363749360E-1,-1.187524080E0,3.107673883E0,1.004158115E1
3.383751020E-1,-1.235408068E0,3.114856482E0,9.936236382E0
3.403750680E-1,-1.295263171E0,3.134010077E0,9.828496933E0
3.423750340E-1,-1.359906554E0,3.160346270E0,9.732728958E0
3.443750000E-1,-1.448492050E0,3.201047659E0,9.624990463E0
3.463749660E-1,-1.541865945E0,3.241749048E0,9.524434090E0
3.483749660E-1,-1.666364431E0,3.289633036E0,9.414299965E0
3.503749660E-1,-1.819593310E0,3.344699860E0,9.285013199E0
3.523749990E-1,-1.970427990E0,3.397372246E0,9.162909508E0
3.543750320E-1,-2.138022184E0,3.459621429E0,9.028834343E0
3.563750650E-1,-2.322375536E0,3.529053211E0,8.880393028E0
3.583754980E-1,-2.492363930E0,3.593696833E0,8.741529465E0
3.603755310E-1,-2.671929121E0,3.658340216E0,8.588300705E0
3.623754970E-1,-2.844311714E0,3.730166197E0,8.425495148E0
3.643755300E-1,-2.997540474E0,3.794809580E0,8.277054787E0
3.663755630E-1,-3.150769472E0,3.869029999E0,8.131008148E0
3.683755630E-1,-3.296815634E0,3.950432777E0,7.989750385E0
3.703755630E-1,-3.418920040E0,4.029441357E0,7.865252018E0
3.723755630E-1,-3.562572241E0,4.122815132E0,7.712022781E0
3.743755630E-1,-3.718195200E0,4.216189384E0,7.549217224E0
3.763755630E-1,-3.919308186E0,4.340687752E0,7.340921879E0
3.783755630E-1,-4.141968727E0,4.496310711E0,7.149385452E0
3.803755290E-1,-4.347870350E0,4.656722069E0,6.998550892E0
3.823754950E-1,-4.560954094E0,4.843470097E0,6.895600319E0
3.843754610E-1,-4.766855717E0,5.042488098E0,6.823774338E0
3.863754270E-1,-4.946720123E0,5.214870453E0,6.766313076E0
3.883753930E-1,-5.111919880E0,5.363311291E0,6.716034889E0
3.903755260E-1,-5.265148640E0,5.490203857E0,6.656179905E0
3.923754920E-1,-5.401618481E0,5.597942829E0,6.596324921E0
3.943754580E-1,-5.535693645E0,5.700893402E0,6.517316341E0
3.963754580E-1,-5.672163010E0,5.796661377E0,6.416759968E0
3.983754910E-1,-5.794267178E0,5.899612427E0,6.320991993E0
4.003755240E-1,-5.906795025E0,5.988197803E0,6.222829342E0
4.023755570E-1,-6.000168800E0,6.045658588E0,6.141426563E0
4.043755900E-1,-6.088754177E0,6.043264389E0,6.062417984E0
4.063756230E-1,-6.165368557E0,5.981015205E0,5.990592003E0
4.083756560E-1,-6.239588737E0,5.897218227E0,5.930737019E0
4.103756890E-1,-6.340145588E0,5.751171589E0,5.911583424E0
4.123756890E-1,-6.438307762E0,5.574000835E0,6.007351398E0
4.143756550E-1,-6.495768547E0,5.401618481E0,6.158185959E0
4.163756210E-1,-6.459855556E0,5.188534260E0,6.411971569E0
4.183755870E-1,-6.318597794E0,4.941931725E0,6.713640690E0
4.203755530E-1,-6.139032364E0,4.716577530E0,6.993762493E0
4.223755860E-1,-5.849334240E0,4.501099110E0,7.264307022E0
4.243755520E-1,-5.463867664E0,4.319139957E0,7.489362240E0
4.263755180E-1,-5.076006889E0,4.168305397E0,7.676109791E0
4.283755180E-1,-4.618414879E0,4.074931145E0,7.817368031E0
4.303755180E-1,-4.185064793E0,4.015076160E0,7.925107002E0
4.323755180E-1,-3.725377798E0,3.986345768E0,8.006509781E0
4.343755180E-1,-3.277662039E0,3.976768970E0,8.078335762E0
4.363755180E-1,-2.892195702E0,3.974374771E0,8.140584946E0
4.383755180E-1,-2.564189911E0,3.971980572E0,8.195652008E0
4.403755180E-1,-2.315192938E0,3.971980572E0,8.243535995E0
4.423755180E-1,-2.135627985E0,3.971980572E0,8.281843185E0
4.443755180E-1,-2.042253971E0,3.957615376E0,8.317755699E0
4.463755510E-1,-2.015917778E0,3.931279182E0,8.363245964E0
4.483755840E-1,-2.015917778E0,3.902548790E0,8.408735275E0
4.503756170E-1,-2.049436569E0,3.871424198E0,8.461407661E0
4.523756500E-1,-2.094926596E0,3.842693806E0,8.509291649E0
4.543756830E-1,-2.161964178E0,3.801992416E0,8.561964989E0
4.563757160E-1,-2.250549555E0,3.763684988E0,8.609848976E0
4.583757160E-1,-2.353500366E0,3.734954596E0,8.643367767E0
4.603756820E-1,-2.451662540E0,3.713406801E0,8.664915085E0
4.623756480E-1,-2.568978310E0,3.711012602E0,8.679280281E0
4.643756140E-1,-2.681505919E0,3.715801001E0,8.693645477E0
4.663755800E-1,-2.808398485E0,3.749319792E0,8.715193748E0
4.683755460E-1,-2.947262287E0,3.816357613E0,8.746317863E0
4.703755120E-1,-3.076549292E0,3.890577793E0,8.782231331E0
4.723754780E-1,-3.213018656E0,3.983951569E0,8.834903717E0
4.743754780E-1,-3.356670856E0,4.089296341E0,8.909123421E0
4.763755110E-1,-3.481169224E0,4.189853191E0,8.988132477E0
4.783755440E-1,-3.586514235E0,4.292803764E0,9.093477249E0
4.803755770E-1,-3.665522814E0,4.386177540E0,9.194033623E0
4.823756100E-1,-3.699041605E0,4.474762917E0,9.299378395E0
4.843756430E-1,-3.684676409E0,4.563348293E0,9.402329445E0
4.863756760E-1,-3.648763418E0,4.642356873E0,9.490914345E0
4.883757090E-1,-3.562572241E0,4.723760128E0,9.555558205E0
4.903757420E-1,-3.433285236E0,4.800374508E0,9.598653793E0
4.923757420E-1,-3.294421434E0,4.862623692E0,9.629778862E0
4.943757420E-1,-3.107673883E0,4.906018734E0,9.639355659E0
4.963757420E-1,-2.875436306E0,4.929960728E0,9.634567261E0
4.983757420E-1,-2.612074137E0,4.927566528E0,9.610625267E0
5.003757420E-1,-2.360682964E0,4.910807133E0,9.574711800E0
5.023757420E-1,-2.082955360E0,4.881777287E0,9.507674217E0
5.043757420E-1,-1.831564307E0,4.824316502E0,9.433453560E0
5.063757080E-1,-1.587355733E0,4.750096321E0,9.330503464E0
5.083756740E-1,-1.376665950E0,4.680664539E0,9.232340813E0
5.103756400E-1,-1.199495077E0,4.604049683E0,9.110237122E0
5.123761060E-1,-1.060631394E0,4.525041103E0,8.961795807E0
5.143760720E-1,-9.528923035E-1,4.450820923E0,8.815750122E0
5.163760380E-1,-8.882488012E-1,4.364629745E0,8.648156166E0
5.183760040E-1,-8.738836050E-1,4.268861771E0,8.470984459E0
5.203760040E-1,-8.858546019E-1,4.175487995E0,8.312967300E0
5.223760040E-1,-9.409212470E-1,4.060565948E0,8.159738541E0
5.243760370E-1,-1.024718285E0,3.921702385E0,8.008903503E0
5.263760700E-1,-1.108515382E0,3.782838583E0,7.874828815E0
5.283761030E-1,-1.192312479E0,3.608062029E0,7.745541573E0
5.303761360E-1,-1.268926859E0,3.435679436E0,7.623437405E0
5.323761690E-1,-1.331176162E0,3.227383852E0,7.513304234E0
5.343762020E-1,-1.379060149E0,2.995146275E0,7.393594265E0
5.363763020E-1,-1.412579060E0,2.782062292E0,7.278672218E0
5.383762680E-1,-1.422155857E0,2.576161146E0,7.135020256E0
5.403762340E-1,-1.403002143E0,2.389413357E0,6.955455303E0
5.423762000E-1,-1.371877551E0,2.236184359E0,6.780678272E0
5.443761660E-1,-1.316810966E0,2.106897593E0,6.586748123E0
5.463761320E-1,-1.240196466E0,1.991975784E0,6.380846977E0
5.483760980E-1,-1.161187768E0,1.893813491E0,6.194098949E0
5.503760640E-1,-1.043871999E0,1.793257117E0,6.004957199E0
5.523753970E-1,-8.762778044E-1,1.697489023E0,5.815814972E0
5.543754300E-1,-6.967126727E-1,1.592144132E0,5.648221016E0
5.563754630E-1,-4.333505034E-1,1.465251446E0,5.480627060E0
5.583745960E-1,-6.703764945E-2,1.307234168E0,5.296273232E0
5.603737290E-1,3.064578176E-1,1.146822572E0,5.121496677E0
5.623728620E-1,7.469909191E-1,9.385270476E-1,4.917989731E0
5.643719950E-1,1.163581967E0,7.254431248E-1,4.723760128E0
5.663711280E-1,1.618480325E0,4.357447028E-1,4.517858505E0
5.683702610E-1,2.073378563E0,7.661445439E-2,4.321534157E0
5.703693940E-1,2.477998734E0,-2.729389966E-1,4.146757126E0
5.723683940E-1,2.877830505E0,-6.967126727E-1,3.979163170E0
5.743678940E-1,3.244143248E0,-1.173158884E0,3.821146011E0
5.763673940E-1,3.545812607E0,-1.616086125E0,3.694253206E0
5.783668940E-1,3.780444384E0,-2.073378563E0,3.610456228E0
5.803663940E-1,3.938461781E0,-2.473210335E0,3.557783842E0
5.823662600E-1,4.041412354E0,-2.844311714E0,3.555389643E0
5.843657260E-1,4.077325344E0,-3.174711466E0,3.588908434E0
5.863651920E-1,4.074931145E0,-3.450044632E0,3.632004023E0
5.883650250E-1,4.015076160E0,-3.687070608E0,3.696647406E0
5.903644910E-1,3.904942989E0,-3.876212597E0,3.794809580E0
5.923639570E-1,3.787626982E0,-4.027047157E0,3.897760391E0
5.943637900E-1,3.643975019E0,-4.134786129E0,4.019864559E0
5.963631560E-1,3.485957623E0,-4.213795185E0,4.144362926E0
5.983630220E-1,3.342305660E0,-4.271255970E0,4.254496574E0
6.003625220E-1,3.196259260E0,-4.304774761E0,4.347870350E0
6.023620550E-1,3.052607059E0,-4.333505154E0,4.424484730E0
6.043619550E-1,2.920926094E0,-4.362235546E0,4.484339714E0
6.063614880E-1,2.786850691E0,-4.410119534E0,4.534617901E0
6.083610210E-1,2.664746523E0,-4.467580318E0,4.575319290E0
6.103609210E-1,2.537853718E0,-4.563348293E0,4.611232281E0
6.123611210E-1,2.422932148E0,-4.695029736E0,4.637568474E0
6.143606210E-1,2.331952572E0,-4.826710701E0,4.656722069E0
6.163604870E-1,2.269703150E0,-4.975450516E0,4.666299343E0
6.183608530E-1,2.250549555E0,-5.123890877E0,4.678270340E0
6.203612190E-1,2.255337954E0,-5.253177643E0,4.695029736E0
6.223620850E-1,2.303221941E0,-5.370493889E0,4.733336926E0
6.243629510E-1,2.370259762E0,-5.466261864E0,4.807557106E0
6.263638170E-1,2.430114746E0,-5.542876244E0,4.891354084E0
6.283646830E-1,2.482787132E0,-5.602731228E0,5.016151905E0
6.303655490E-1,2.521094322E0,-5.648221016E0,5.183745861E0
6.323666820E-1,2.542642117E0,-5.686528206E0,5.348946095E0
6.343672150E-1,2.537853718E0,-5.717652798E0,5.538087845E0
6.363677480E-1,2.509123325E0,-5.741594791E0,5.736806393E0
6.383682810E-1,2.454056740E0,-5.753565788E0,5.911583424E0
6.403687470E-1,2.391807556E0,-5.746383190E0,6.074388981E0
6.423689130E-1,2.322375536E0,-5.732017994E0,6.213252544E0
6.443694460E-1,2.233790159E0,-5.712864399E0,6.342539787E0
6.463699790E-1,2.133233786E0,-5.693710804E0,6.467038155E0
6.483701120E-1,2.039859772E0,-5.681739807E0,6.584353924E0
6.503706120E-1,1.932120800E0,-5.686528206E0,6.720823288E0
6.523711120E-1,1.802833915E0,-5.693710804E0,6.886023521E0
6.543712450E-1,1.668758631E0,-5.700893402E0,7.046434879E0
6.563717450E-1,1.484405041E0,-5.720046997E0,7.221211433E0
6.583718780E-1,1.261744261E0,-5.753565788E0,7.393594265E0
6.603723780E-1,1.046266198E0,-5.787084579E0,7.534852028E0
6.623728440E-1,8.092401624E-1,-5.820603371E0,7.611466408E0
6.643729440E-1,5.722141862E-1,-5.846940041E0,7.637802601E0
6.663734100E-1,3.615244627E-1,-5.858911037E0,7.575553417E0
6.683738760E-1,1.580173075E-1,-5.861305237E0,7.465420246E0
6.703739760E-1,-2.394201607E-2,-5.856516838E0,7.352892876E0
6.723744420E-1,-1.939303428E-1,-5.839757442E0,7.187692642E0
6.743749080E-1,-3.351882398E-1,-5.820603371E0,6.991368294E0
6.763750080E-1,-4.453215301E-1,-5.794267178E0,6.816591740E0
6.783755080E-1,-5.291185975E-1,-5.758354187E0,6.641814709E0
6.803760410E-1,-5.865794420E-1,-5.720046997E0,6.467038155E0
6.823760740E-1,-6.320692301E-1,-5.688922405E0,6.309020519E0
6.843761070E-1,-6.631938815E-1,-5.672163010E0,6.141426563E0
6.863761400E-1,-6.823474765E-1,-5.684134007E0,5.957073212E0
6.883761730E-1,-6.943184733E-1,-5.708076000E0,5.782296181E0
6.903762060E-1,-7.038952708E-1,-5.755959988E0,5.600337029E0
6.923756060E-1,-7.086837292E-1,-5.811026573E0,5.442319870E0
6.943756060E-1,-7.230489254E-1,-5.892429829E0,5.291484833E0
6.963755720E-1,-7.541735172E-1,-5.997774601E0,5.164592266E0
