Time (s),Acceleration x (m/s^2),Acceleration y (m/s^2),Acceleration z (m/s^2)
9.003087042,-1.7716359044510264e+71,2.185999947614715e+69,6.798659011138754e+70
9.007863605,-1.7537011782582892e+71,2.1652117844770174e+69,6.731671512716769e+70
9.012640167,-1.7359501752794374e+71,2.1446243176102606e+69,6.665321304322571e+70
9.01741673,-1.7183810513048333e+71,2.12423558688778e+69,6.599602914306039e+70
9.022193292,-1.7009919798137982e+71,2.1040436512496147e+69,6.534510909645426e+70
9.026969855,-1.683781151820129e+71,2.0840465885166778e+69,6.470039895712336e+70
9.031746417,-1.6667467757185252e+71,2.0642424952065372e+69,6.406184516039672e+70
9.03652298,-1.649887077131929e+71,2.044629486350833e+69,6.342939452092499e+70
9.041299542,-1.6332002987597993e+71,2.0252056953143796e+69,6.280299423041754e+70
9.046076105,-1.6166847002273302e+71,2.0059692736160154e+69,6.218259185540755e+70
9.050852667,-1.6003385579356395e+71,1.9869183907512454e+69,6.156813533504469e+70
9.05562923,-1.5841601649129517e+71,1.9680512340167027e+69,6.095957297891524e+70
9.060405792,-1.5681478306668076e+71,1.949366008336446e+69,6.035685346488901e+70
9.065182407,-1.5522998810373236e+71,1.9308609360901026e+69,5.975992583699288e+70
9.069958969,-1.5366146580515212e+71,1.9125342569428627e+69,5.916873950331062e+70
9.074735532,-1.5210905197787522e+71,1.8943842276773215e+69,5.858324423390834e+70
9.079512094,-1.5057258401872195e+71,1.876409122027176e+69,5.800339015878505e+70
9.084288657,-1.4905190090015833e+71,1.8586072305127544e+69,5.742912776584866e+70
9.089065219,-1.4754684315616416e+71,1.8409768602783573e+69,5.686040789891716e+70
9.093841782,-1.4605725286820626e+71,1.823516334931385e+69,5.629718175574497e+70
9.098618344,-1.4458297365131412e+71,1.806223994383222e+69,5.573940088607414e+70
9.103394907,-1.4312385064025512e+71,1.7890981946918465e+69,5.5187017189709467e+70
9.108171469,-1.4167973047580599e+71,1.7721373079061473e+69,5.4639982914616744e+70
9.112948032,-1.402504612911169e+71,1.7553397219119385e+69,5.4098250655042823e+70
9.117724594,-1.3883589269816574e+71,1.7387038402796664e+69,5.3561773349656927e+70
9.122501209,-1.3743587577430058e+71,1.7222280821138109e+69,5.3030504279712627e+70
9.127277771,-1.3605026304886884e+71,1.7059108819039855e+69,5.2504397067230284e+70
9.132054334,-1.3467890848993142e+71,1.6897506893777302e+69,5.198340567319944e+70
9.136830896,-1.333216674910604e+71,1.6737459693549888e+69,5.146748439580034e+70
9.141607459,-1.319783968582189e+71,1.6578952016042627e+69,5.095658786864385e+70
9.146384021,-1.30648954796721e+71,1.6421968807004337e+69,5.0450671059028996e+70
9.151160584,-1.293332008982695e+71,1.6266495158842418e+69,4.994968926621748e+70
9.155937146,-1.2803099612806988e+71,1.611251630923386e+69,4.945359811972478e+70
9.160713709,-1.2674220281201883e+71,1.596001763975214e+69,4.8962353577627214e+70
9.165490271,-1.2546668462396594e+71,1.5808984674509708e+69,4.847591192488463e+70
9.170266834,-1.2420430657304668e+71,1.5659403078815694e+69,4.799422977167797e+70
9.175043396,-1.229549349910854e+71,1.5511258657848574e+69,4.751726405176125e+70
9.179819959,-1.217184375200671e+71,1.5364537355343627e+69,4.704497202082749e+70
9.184596573,-1.204946830996761e+71,1.5219225252294857e+69,4.657731125488826e+70
9.189373136,-1.1928354195490078e+71,1.5075308565670984e+69,4.6114239648666576e+70
9.194149698,-1.1808488558370382e+71,1.493277364714494e+69,4.565571541400327e+70
9.198926261,-1.1689858674475826e+71,1.479160698183638e+69,4.520169707827676e+70
9.203702823,-1.157245194452497e+71,1.465179518706659e+69,4.4752143482836e+70
9.208479386,-1.145625589287459e+71,1.4513325011125215e+69,4.430701378144624e+70
9.213255948,-1.13412581663135e+71,1.4376183332048225e+69,4.3866267438747136e+70
9.218032511,-1.122744653286342e+71,1.42403571564067e+69,4.3429864228722196e+70
9.222809073,-1.1114808880587147e+71,1.4105833618105989e+69,4.2997764233178657e+70
9.227585636,-1.1003333216404388e+71,1.3972599977194967e+69,4.2569927840236314e+70
9.232362198,-1.0893007664915541e+71,1.3840643618685e+69,4.214631574282401e+70
9.237138761,-1.0783820467233742e+71,1.3709952051378337e+69,4.172688893718236e+70
9.241915323,-1.0675759979825553e+71,1.358051290670568e+69,4.1311608721371386e+70
9.246691938,-1.0568814673360605e+71,1.3452313937572736e+69,4.0900436693781913e+70
9.251468501,-1.0462973131570437e+71,1.332534301721557e+69,4.049333475164928e+70
9.256245063,-1.0358224050116908e+71,1.3199588138064667e+69,4.009026508956832e+70
9.261021626,-1.0254556235470354e+71,1.307503741061768e+69,3.9691190198008606e+70
9.265798188,-1.0151958603797713e+71,1.2951679062320715e+69,3.9296072861828997e+70
9.270574751,-1.0050420179860684e+71,1.2829501436458004e+69,3.890487615879107e+70
9.275351313,-9.949930095924111e+70,1.2708492991049786e+69,3.85175634580706e+70
9.280127876,-9.850477590674695e+70,1.2588642297758415e+69,3.8134098418766324e+70
9.284904438,-9.752052008150126e+70,1.2469938040802696e+69,3.775444498840547e+70
9.289681001,-9.654642796678796e+70,1.2352369015880551e+69,3.7378567401445917e+70
9.294457563,-9.558239507830258e+70,1.2235924129100125e+69,3.700643017777477e+70
9.299234126,-9.462831795376597e+70,1.2120592395919415e+69,3.663799812120362e+70
9.30401074,-9.368409414264902e+70,1.2006362940094478e+69,3.6273236317960635e+70
9.308787303,-9.274962219601003e+70,1.1893224992636213e+69,3.5912110135179726e+70
9.313563865,-9.182480165644591e+70,1.1781167890775742e+69,3.555458521938708e+70
9.318340428,-9.090953304815901e+70,1.167018107693845e+69,3.520062749498548e+70
9.32311699,-9.00037178671405e+70,1.1560254097726855e+69,3.48502031627364e+70
9.327893553,-8.910725857147068e+70,1.1451376602912484e+69,3.450327869824003e+70
9.332670115,-8.822005857173647e+70,1.1343538344436978e+69,3.415982085041364e+70
9.337446678,-8.734202222156558e+70,1.1236729175422574e+69,3.381979663996824e+70
9.34222324,-8.647305480827685e+70,1.1130939049192045e+69,3.34831733578837e+70
9.346999803,-8.561306254364623e+70,1.1026158018298138e+69,3.3149918563882385e+70
9.351776365,-8.47619525547882e+70,1.0922376233562504e+69,3.282000008490135e+70
9.356552928,-8.391963287515132e+70,1.081958394312421e+69,3.249338601356304e+70
9.36132949,-8.308601243562677e+70,1.0717771491497953e+69,3.2170044706644237e+70
9.366106053,-8.226100105576873e+70,1.061692931864208e+69,3.1849944783542596e+70
9.370882667,-8.144450943512458e+70,1.0517047959036632e+69,3.153305512474006e+70
9.37565923,-8.063644914467239e+70,1.04181180407715e+69,3.121934487026245e+70
9.380435792,-7.983673261836345e+70,1.0320130284644908e+69,3.090878341813488e+70
9.385212355,-7.904527314476712e+70,1.0223075503272207e+69,3.060134042283231e+70
9.389988917,-7.826198485881507e+70,1.012694460020489e+69,3.029698579372515e+70
9.39476548,-7.748678273364238e+70,1.003172856905976e+69,2.999568969351966e+70
9.399542042,-7.671958257252254e+70,9.937418492658198e+68,2.969742253669285e+70
9.404318605,-7.596030100089473e+70,9.844005542175312e+68,2.940215498792192e+70
9.409095167,-7.520885545848124e+70,9.751480976298727e+68,2.9109857960508345e+70
9.41387173,-7.446516419149353e+70,9.659836140396699e+68,2.882050261479713e+70
9.418648292,-7.372914624492623e+70,9.569062465695251e+68,2.85340603565916e+70
9.423424907,-7.3000721454938e+70,9.479151468463983e+68,2.825050283556409e+70
9.428201469,-7.227981044131885e+70,9.390094749210092e+68,2.7969801943663136e+70
9.432978032,-7.156633460004377e+70,9.301883991880212e+68,2.769192981351746e+70
9.437754594,-7.086021609591249e+70,9.214510963069639e+68,2.7416858816837488e+70
9.442531157,-7.016137785527466e+70,9.127967511238583e+68,2.7144561562814514e+70
9.447307719,-6.946974355883969e+70,9.042245565935107e+68,2.687501089651817e+70
9.452084282,-6.878523763457002e+70,8.957337137024365e+68,2.660817989729293e+70
9.456860844,-6.810778525065769e+70,8.873234313923847e+68,2.6344041877154694e+70
9.461637407,-6.743731230858341e+70,8.789929264844392e+68,2.608257037918832e+70
9.466413969,-6.677374543625734e+70,8.707414236036817e+68,2.5823739175946906e+70
9.471190532,-6.611701198124072e+70,8.625681551044045e+68,2.556752226785337e+70
9.475967094,-6.546704000404804e+70,8.544723609958618e+68,2.5313893881604776e+70
9.480743657,-6.482375827152922e+70,8.464532888685431e+68,2.506282846857979e+70
9.485520271,-6.4187096250332e+70,8.385101938209563e+68,2.4814300703249854e+70
9.490296782,-6.355698410044373e+70,8.306423383869098e+68,2.456828548159474e+70
9.495073396,-6.293335266881229e+70,8.228489924632861e+68,2.4324757919522852e+70
9.499849959,-6.231613348304523e+70,8.15129433238304e+68,2.4083693351296603e+70
9.504626521,-6.170525874518607e+70,8.074829451202761e+68,2.3845067327963386e+70
9.509403084,-6.110066132556669e+70,7.999088196668703e+68,2.3608855615792454e+70
9.514179646,-6.050227475673469e+70,7.924063555148886e+68,2.3375034194718077e+70
9.518956209,-5.991003322745402e+70,7.84974858310579e+68,2.3143579256789412e+70
9.523732771,-5.932387157677832e+70,7.776136406404941e+68,2.2914467204627493e+70
9.528509334,-5.874372528819616e+70,7.703220219629048e+68,2.2687674649889816e+70
9.533285896,-5.816953048384747e+70,7.63099328539773e+68,2.2463178411742945e+70
9.538062459,-5.760122391881047e+70,7.559448933692875e+68,2.2240955515343425e+70
9.542839021,-5.703874297545871e+70,7.488580561189662e+68,2.2020983190327286e+70
9.547615584,-5.648202565788724e+70,7.418381630593309e+68,2.180323886930846e+70
9.552392146,-5.593101058640776e+70,7.348845669981524e+68,2.1587700186386437e+70
9.557168709,-5.538563699211254e+70,7.279966272152627e+68,2.1374344975663505e+70
9.561945323,-5.484584471150664e+70,7.211737093979304e+68,2.1163151269771994e+70
9.566721886,-5.431157418120754e+70,7.144151855767949e+68,2.095409729841181e+70
9.571498448,-5.378276643271062e+70,7.077204340623565e+68,2.0747161486898584e+70
9.576275011,-5.32593630872198e+70,7.010888393820169e+68,2.054232245472263e+70
9.581051573,-5.274130635054284e+70,6.945197922176709e+68,2.0339559014119102e+70
9.585828136,-5.2228539008050654e+70,6.880126893438477e+68,2.0138850168649625e+70
9.590604698,-5.172100441969929e+70,6.815669335664041e+68,1.994017511179587e+70
9.595381261,-5.1218646515113454e+70,6.751819336617706e+68,1.974351322556526e+70
9.600157823,-5.072140978872981e+70,6.688571043167486e+68,1.9548844079108954e+70
9.604934386,-5.022923929499865e+70,6.625918660688589e+68,1.9356147427352112e+70
9.609710948,-4.9742080643642505e+70,6.563856452472431e+68,1.9165403209636685e+70
9.614487511,-4.9259879994970405e+70,6.502378739141225e+68,1.8976591548376663e+70
9.619264073,-4.878258405524648e+70,6.441479898068115e+68,1.8789692747725837e+70
9.624040688,-4.831014007211115e+70,6.381154362802817e+68,1.860468729225791e+70
9.628817251,-4.7842495830053365e+70,6.321396622502738e+68,1.8421555845658808e+70
9.633593813,-4.737959964593225e+70,6.262201221369505e+68,1.8240279249431037e+70
9.638370376,-4.692140036454655e+70,6.203562758090846e+68,1.806083852161e+70
9.643146938,-4.64678473542503e+70,6.145475885287774e+68,1.7883214855492022e+70
9.647923501,-4.6018890502613644e+70,6.087935308966963e+68,1.7707389618373903e+70
9.652700063,-4.557448021212794e+70,6.030935787978146e+68,1.7533344350303703e+70
9.657476626,-4.513456739595398e+70,5.97447213347638e+68,1.7361060762842506e+70
9.662253188,-4.469910347371217e+70,5.91853920838907e+68,1.7190520737837106e+70
9.667029751,-4.4268040367313514e+70,5.86313192688773e+68,1.7021706326203542e+70
9.671806313,-4.384133049682976e+70,5.808245253864462e+68,1.6854599746721555e+70
9.676582876,-4.3418926776401224e+70,5.75387420441316e+68,1.6689183384840026e+70
9.681359438,-4.300078261018076e+70,5.700013843315381e+68,1.6525439791493497e+70
9.686136001,-4.258685188831262e+70,5.646659284530872e+68,1.6363351681929945e+70
9.690912615,-4.217708898294535e+70,5.593805690692662e+68,1.6202901934549912e+70
9.695689178,-4.1771448744277566e+70,5.541448272606638e+68,1.604407358975706e+70
9.70046574,-4.136988649663573e+70,5.489582288755518e+68,1.5886849848820057e+70
9.705242303,-4.0972358034582826e+70,5.438203044807169e+68,1.5731214072745654e+70
9.710018865,-4.057881961905735e+70,5.387305893127139e+68,1.5577149781162846e+70
9.714795428,-4.018922797354184e+70,5.336886232295341e+68,1.5424640651217876e+70
9.71957199,-3.980354028026005e+70,5.286939506626781e+68,1.5273670516479786e+70
9.724348553,-3.942171417640191e+70,5.237461205696238e+68,1.5124223365856123e+70
9.729125115,-3.904370775037492e+70,5.188446863866829e+68,1.497628334251845e+70
9.733901678,-3.8669479538080677e+70,5.139892059822408e+68,1.4829834742837352e+70
9.73867824,-3.829898851921526e+70,5.091792416103742e+68,1.468486201532665e+70
9.743454803,-3.793219411359265e+70,5.044143598648398e+68,1.4541349759596477e+70
9.748231365,-3.756905617749039e+70,4.996941316334325e+68,1.4399282725314813e+70
9.753007928,-3.720953500001685e+70,4.950181320527081e+68,1.4258645811177055e+70
9.75778449,-3.6853591299499556e+70,4.903859404630671e+68,1.4119424063883192e+70
9.762561105,-3.6501186219893974e+70,4.857971403641984e+68,1.3981602677122025e+70
9.767337667,-3.61522813272126e+70,4.812513193708826e+68,1.3845166990561855e+70
9.77211423,-3.580683860597387e+70,4.767480691691555e+68,1.3710102488846978e+70
9.776890792,-3.546482045567062e+70,4.722869854728374e+68,1.3576394800599265e+70
9.781667355,-3.512618968725778e+70,4.6786766798043305e+68,1.3444029697424245e+70
9.786443917,-3.479090951965899e+70,4.634897203324075e+68,1.331299309292101e+70
9.79122048,-3.445894357629182e+70,4.591527500688421e+68,1.3183271041695204e+70
9.795997042,-3.413025588161175e+70,4.548563685874782e+68,1.3054849738374498e+70
9.800773605,-3.38048108576747e+70,4.506001911021525e+68,1.292771551662587e+70
9.805550167,-3.348257332071779e+70,4.463838366016354e+68,1.2801854848174175e+70
9.81032673,-3.316350847775808e+70,4.422069278088784e+68,1.267725434182156e+70
9.815103292,-3.284758192320872e+70,4.3806909114067815e+68,1.255390074246737e+70
9.819879855,-3.253475963551217e+70,4.339699566677668e+68,1.2431780930128225e+70
9.824656417,-3.222500797379003e+70,4.299091580753373e+68,1.2310881918957913e+70
9.829433032,-3.1918293674509236e+70,4.25886332624016e+68,1.2191190856266857e+70
9.834209594,-3.161458384816371e+70,4.2190112111129463e+68,1.2072695021541014e+70
9.838986157,-3.131384597597114e+70,4.179531678334349e+68,1.1955381825460182e+70
9.843762719,-3.101604790658436e+70,4.140421205478574e+68,1.1839238808915708e+70
9.848539282,-3.072115785281722e+70,4.101676304360244e+68,1.1724253642027583e+70
9.853315844,-3.042914438838494e+70,4.063293520668256e+68,1.1610414123160822e+70
9.858092407,-3.013997644465881e+70,4.0252694336047323e+68,1.1497708177941052e+70
9.862868969,-2.985362330743484e+70,3.987600655529141e+68,1.138612385826918e+70
9.867645532,-2.957005461371613e+70,3.950283831607638e+68,1.1275649341335126e+70
9.872422094,-2.928924034850849e+70,3.913315639467637e+68,1.1166272928630664e+70
9.877198657,-2.9011150841629186e+70,3.8766927888575796e+68,1.1057983044961413e+70
9.881975219,-2.87357567645284e+70,3.840412021311841e+68,1.09507682374582e+70
9.886751782,-2.846302912712324e+70,3.8044701098207305e+68,1.0844617174587968e+70
9.891528344,-2.819293927464393e+70,3.7688638585055194e+68,1.0739518645164461e+70
9.896304907,-2.792545888449186e+70,3.7335901022984126e+68,1.063546155735886e+70
9.901081521,-2.7660559963109573e+70,3.698645706627349e+68,1.0532434937710572e+70
9.905858084,-2.7398214842862683e+70,3.664027567105491e+68,1.0430427930138353e+70
9.910634646,-2.7138396178933884e+70,3.6297326092252743e+68,1.0329429794951913e+70
9.915411209,-2.6881076946229137e+70,3.5957577880568684e+68,1.0229429907864114e+70
9.920187771,-2.66262304362964e+70,3.562100087950916e+68,1.0130417759004024e+70
9.924964334,-2.6373830254257107e+70,3.52875652224542e+68,1.0032382951931052e+70
9.929740896,-2.6123850315750616e+70,3.4957241329766305e+68,9.93531520265035e+69
9.934517459,-2.5876264843891974e+70,3.4629999905938044e+68,9.839204338629643e+69
9.939294021,-2.5631048366243115e+70,3.430581193677718e+68,9.744040297817615e+69
9.944070584,-2.538817571179762e+70,3.398464868662802e+68,9.649813127663952e+69
9.948847146,-2.514762200797919e+70,3.3666481695627857e+68,9.556512984141101e+69
9.953623709,-2.4909362677654028e+70,3.3351282776997496e+68,9.464130130767882e+69
9.958400271,-2.4673373436157365e+70,3.3039024014364696e+68,9.372654937635132e+69
9.963176834,-2.4439630288334442e+70,3.2729677759119437e+68,9.282077880433569e+69
9.967953396,-2.42081095255965e+70,3.242321662780017e+68,9.192389539484048e+69
9.972729959,-2.397878772299212e+70,3.2119613499510065e+68,9.103580598770416e+69
9.977506573,-2.3751641736294277e+70,3.181884151336204e+68,9.015641844975051e+69
9.982283136,-2.3526648699103564e+70,3.1520874065951325e+68,8.928564166517303e+69
9.987059698,-2.330378601996785e+70,3.122568480885432e+68,8.842338552594963e+69
9.991836261,-2.3083031379518602e+70,3.0933247646152615e+68,8.756956092228915e+69
9.996612823,-2.2864362727624126e+70,3.064353673198119e+68,8.672407973311187e+69
10.00138939,-2.2647758280559885e+70,3.0356526468099824e+68,8.588685481656644e+69
10.00616595,-2.243319651819585e+70,3.007219150148702e+68,8.505780000058503e+69
10.01094251,-2.2220656181200633e+70,2.979050672195576e+68,8.423683007347872e+69
10.01571907,-2.2010116268261963e+70,2.9511447259790766e+68,8.342386077457434e+69
10.02049564,-2.180155603332292e+70,2.9234988483406907e+68,8.26188087848944e+69
10.0252722,-2.159495498283342e+70,2.896110599702878e+68,8.182159171788088e+69
10.03004876,-2.139029287301664e+70,2.8689775638391343e+68,8.103212811016284e+69
10.03482532,-2.118754970715027e+70,2.8420973476461763e+68,8.02503374123678e+69
10.03960189,-2.098670573286228e+70,2.81546758091828e+68,7.947613997997723e+69
10.0443785,-2.078774143944075e+70,2.789085916123813e+68,7.870945706422625e+69
10.04915506,-2.0590637555157462e+70,2.762950028183984e+68,7.795021080304825e+69
10.05393163,-2.0395375044604894e+70,2.737057614253853e+68,7.719832421206463e+69
10.05870819,-2.0201935106046372e+70,2.711406393505645e+68,7.645372117561973e+69
10.06348475,-2.0010299168779127e+70,2.685994106914405e+68,7.57163264378607e+69
10.06826131,-1.9820448890509874e+70,2.660818517046008e+68,7.498606559386228e+69
10.07303788,-1.9632366154742536e+70,2.63587740784751e+68,7.426286508079598e+69
10.07781444,-1.9446033068177583e+70,2.611168584439883e+68,7.354665216914352e+69
10.082591,-1.9261431958122635e+70,2.5866898729131365e+68,7.283735495395472e+69
10.08736756,-1.9078545369913965e+70,2.562439120123786e+68,7.213490234614886e+69
10.09214413,-1.8897356064348727e+70,2.538414193494606e+68,7.143922406385955e+69
10.09692069,-1.8717847015127843e+70,2.514612980816612e+68,7.075025062382257e+69
10.10169725,-1.854000140630966e+70,2.491033390053214e+68,7.006791333280705e+69
10.10647381,-1.8363802629774445e+70,2.467673349146498e+68,6.939214427909052e+69
10.11125038,-1.818923428269995e+70,2.4445308058255584e+68,6.8722876323978236e+69
10.11602694,-1.8016280165048425e+70,2.4216037274168343e+68,6.8060043093367765e+69
10.12080355,-1.7844924277065382e+70,2.39889010065636e+68,6.7403578969359726e+69
10.12558012,-1.767515081679046e+70,2.376387931503889e+68,6.675341908191495e+69
10.13035668,-1.7506944177580587e+70,2.3540952449588477e+68,6.610949930055897e+69
10.13513324,-1.7340288945645585e+70,2.3320100848780717e+68,6.547175622613461e+69
10.1399098,-1.7175169897596322e+70,2.3101305137952964e+68,6.4840127182603316e+69
10.14468636,-1.7011571998005544e+70,2.2884546127423593e+68,6.42145502088959e+69
10.14946293,-1.6849480396981504e+70,2.266980481072082e+68,6.359496405081343e+69
10.15423949,-1.668888042775459e+70,2.2457062362828107e+68,6.298130815297934e+69
10.15901605,-1.6529757604277218e+70,2.2246300138446095e+68,6.237352265084395e+69
10.16379262,-1.637209761883708e+70,2.203749967027106e+68,6.17715483627429e+69
10.16856918,-1.6215886339683864e+70,2.18306426672899e+68,6.117532678201042e+69
10.17334574,-1.6061109808669485e+70,2.162571101309158e+68,6.058480006914788e+69
10.1781223,-1.5907754238901937e+70,2.1422686764194734e+68,5.999991104404812e+69
10.18289886,-1.5755806012412962e+70,2.1221552148391003e+68,5.942060317827592e+69
10.18767543,-1.5605251677839763e+70,2.1022289563103746e+68,5.8846820587405214e+69
