Time (s),Acceleration x (m/s^2),Acceleration y (m/s^2),Acceleration z (m/s^2)
10.00036927,32.76970673,-30.61975479,-8.524430275
10.00513276,29.63510895,-29.27379227,-6.105287075
10.00992286,19.09113503,-24.03470612,-4.292723656
10.01469969,9.234500885,-17.37727547,-2.845066071
10.01946318,2.441875458,-11.8343029,-2.088335991
10.02425328,-1.347159147,-7.622934818,-1.678565025
10.0290301,-2.883949518,-4.644468784,-1.672582984
10.03379359,-4.124029636,-2.754138947,-1.90229404
10.0385837,-5.124229908,-1.465603828,-2.258226395
10.04336052,-6.328417778,-0.5335994363,-2.578864574
10.04812401,-8.038687706,-0.05084748194,-2.008774519
10.05291417,-10.65344429,0.1010967568,-0.6759724021
10.05769094,-13.46261883,-0.01674975827,-0.3780659735
10.06245448,-14.55015659,-0.3954139352,-0.262014091
10.06724458,-13.30828094,-1.168295622,0.912861824
10.07202141,-10.77009487,-2.400001049,-0.1357926875
10.0767849,-8.032107353,-3.718446493,-0.5282155871
10.081575,-5.752345562,-5.09073019,-0.3332005441
10.08635182,-4.18205595,-6.474380016,-0.1381855011
10.09111531,-3.038286448,-7.729415417,0.3074777126
10.09590542,-2.150549412,-9.162715912,0.7453642488
10.10068224,-1.825125456,-10.60319519,1.095314622
10.10544573,-1.595414519,-11.96112251,1.383051515
10.11023583,-1.341177106,-13.13599777,1.838286042
10.11501266,-0.9499505758,-13.8490591,2.470589399
10.11977615,-0.3008974493,-14.09791279,3.393620729
10.1245663,0.4360919297,-14.04826164,4.166502476
10.12934307,1.225125194,-13.89751434,4.887340069
10.13410661,1.8855443,-13.48176098,5.699703693
10.13889672,2.344966173,-12.9320097,6.440282345
10.14367354,2.414956331,-12.30030441,6.617351055
10.14843703,1.983649969,-11.73799133,6.311667919
10.15322714,1.685145378,-11.24686432,6.131010056
10.15800396,1.497308731,-10.82812023,5.891727448
10.16278078,1.296909928,-10.61695385,5.187041283
10.16755755,1.484746456,-10.53918743,4.773082733
10.17233438,2.225325108,-10.57567787,4.500899315
10.17709786,3.233899832,-10.52004433,4.433301926
10.18188797,4.34775877,-10.44526863,4.65762949
10.18666479,5.50169754,-10.60618591,5.001597404
10.19142828,6.664609432,-10.95972633,5.139782906
10.19621844,7.396214962,-11.25164986,4.83409977
10.20099521,8.145168304,-11.65484047,4.182653904
10.20575875,9.242876053,-12.05145168,2.900699139
10.21054885,12.20877934,-12.41755295,-0.9200403094
10.21532568,14.71885014,-12.52164078,-2.828914642
10.22008917,15.54138279,-12.51506042,-2.904886723
10.22487927,14.85464287,-12.03470135,-3.722633839
10.22965609,13.40100288,-11.35872936,-3.796811342
10.23441958,12.04008579,-10.57208824,-3.391826153
10.23920969,10.90050316,-9.683753014,-2.595016241
10.24398651,10.06002426,-8.775676727,-1.808973908
10.24875,9.490532875,-8.073982239,-1.158126116
10.2535401,8.687142372,-7.27178812,-0.6891329288
10.25831693,7.929814339,-6.396613121,-0.3553341627
10.26308042,7.174878597,-5.483152866,-0.3038884699
10.26787057,6.14357233,-4.579862595,-0.4863412082
10.27264734,5.075176716,-3.865006685,-0.4905286431
10.27741088,3.908675671,-3.351746321,-0.4229314029
10.28220099,2.78883481,-3.065804005,-0.5611169338
10.28697781,2.032702923,-3.05324173,-0.5856433511
10.2917413,1.939382792,-3.414557934,-0.4414757788
10.29653141,2.697907448,-4.058227062,-0.3391826153
10.30130823,3.603590965,-4.566701889,-0.3960121572
10.306085,4.071985722,-4.922634602,-0.1968096644
10.31086182,4.222733974,-5.148756027,0.1627119333
10.31563865,4.183252335,-5.380261898,0.5611169338
10.32040214,4.030709743,-5.751747608,1.181456208
10.32519224,3.915854216,-6.065805435,1.666600943
10.32996906,3.978665829,-6.315855503,1.743171334
10.33474588,4.059423447,-6.50369215,1.627717614
10.33952271,4.19282341,-6.695715904,1.473978758
10.34429948,4.410570145,-6.882954121,1.194616675
10.3490763,4.571487427,-7.099504948,0.9248259664
10.35385312,4.590032101,-7.29691267,0.7375875711
10.35862995,4.658825874,-6.857829571,0.5455635786
10.36340672,4.439882278,-7.272984505,0.3260220885
10.36818354,4.405784607,-7.306483746,0.1489532143
10.37296036,4.310669899,-7.701898098,-0.02333002165
10.37772385,4.130609989,-8.08295536,-0.1465603858
10.38251396,3.772284985,-8.324629784,-0.4426721931
10.38729078,3.358924866,-8.609375954,-1.337587833
10.39205427,2.978466034,-8.840881348,-2.914458036
10.39684443,2.795415163,-9.071788788,-4.189832687
10.4016212,2.885744095,-9.230313301,-5.053641319
10.40638469,3.313461065,-9.325428009,-5.329414368
10.41117484,3.94815731,-9.367900848,-4.89631319
10.41595161,4.792225361,-9.274580956,-3.830310822
10.42071516,5.741578102,-9.180662155,-2.578266382
10.42550526,6.614359856,-9.001200676,-1.368694544
10.43028208,7.319046497,-8.970691681,-0.4031906128
10.43504557,7.875377655,-9.051449776,0.242273286
10.43983568,8.188239098,-9.162117958,0.8165507317
10.4446125,8.368897438,-9.321240425,1.459023595
10.44937599,8.325826645,-9.41336441,2.155334949
10.45416609,8.109873772,-9.471988678,2.641077995
10.45894292,7.972885132,-9.573084831,2.727817774
10.46370641,7.968099594,-9.515657425,2.746960402
10.46849656,8.110472679,-9.346364975,2.784647465
10.47327333,8.271987915,-9.177073479,2.817548752
10.47803682,8.385048866,-9.07059288,2.768495798
10.48282698,8.302495956,-9.027522087,2.452643156
10.48760375,8.0757761,-9.085547447,1.877767563
10.49238057,7.777271748,-9.18245697,1.241276741
10.4971574,7.817949772,-9.341579437,0.7800601721
10.50193422,7.944170952,-9.644271851,0.3385843933
10.50671099,7.886145115,-9.918848038,-0.03529413417
10.51148781,7.908876896,-10.1401844,-0.2949153781
10.51626464,7.895716667,-10.3716898,-0.290129751
10.52104146,7.920242786,-10.55474091,-0.1746760458
10.52581823,7.688737392,-10.72403336,-0.1106680483
10.53059505,7.379465103,-10.72463131,-0.01794617064
10.53537188,6.966702938,-10.84128094,0.128614217
10.54014865,6.483353138,-11.05005455,0.2703889608
10.54492547,6.01376152,-11.02672482,0.6035895348
10.54968896,5.398806095,-10.88435173,1.158724308
10.55447911,4.835894585,-10.92921734,1.775474429
10.55925594,5.044070244,-11.21276665,2.154138565
10.56403271,5.524429321,-11.70329571,1.816152334
10.56880953,6.123831272,-12.35175037,0.7621139884
10.57358635,6.385247231,-12.76989651,-0.3810569942
10.57834984,6.595217228,-13.05823135,-1.1395818
10.58313995,6.712465763,-13.18744373,-1.543968797
10.58791677,6.829713821,-13.11984634,-1.727019787
10.59268026,7.36211729,-12.88235855,-1.614557028
10.59747036,7.941778183,-12.55334568,-1.65164578
10.60224719,8.365307808,-12.17647648,-2.137987137
10.60701068,8.708678246,-11.68893814,-2.659024239
10.61180083,8.732605934,-11.12961674,-3.110669374
10.6165776,8.412566185,-10.55234814,-3.762115479
10.62134109,7.674380302,-10.08096218,-4.391427994
10.62613125,6.891329288,-9.803394318,-4.767100811
10.63090807,6.145366669,-9.78126049,-4.556532383
10.63567156,5.922235966,-9.912267685,-3.735196114
10.64046167,6.235695839,-10.14796066,-2.397010088
10.64523849,6.174080849,-10.37109184,-0.890130043
10.65000198,5.784648895,-10.4596262,0.7435696125
10.65479208,4.628317356,-10.35194874,1.555932879
10.65956891,3.232105255,-10.53320503,1.073779106
10.6643324,2.901297569,-10.94357395,1.272383451
10.6691225,3.0981071,-10.8999052,1.520638824
10.67389932,2.496910334,-11.42632675,1.764108539
10.67866281,2.057827473,-12.22253799,1.872383714
10.68345297,1.829312921,-12.47318649,1.720439434
10.68822974,1.301097274,-12.84108257,1.478764415
10.69299323,1.025922656,-13.41476154,1.269392371
10.69778339,0.7944171429,-13.86820221,1.309472203
10.70256021,0.6783652306,-14.32642746,1.670190215
10.7073237,0.7058826685,-14.88515186,1.953141451
10.7121138,0.6652047038,-15.28056526,2.064407825
10.71689063,0.7734799385,-15.29970837,2.568096876
10.72165411,1.079162955,-15.23569965,2.105684042
10.72644422,1.18743825,-15.12443352,1.164706469
10.73122104,2.632703066,-14.91865063,1.070788145
10.73598453,3.463012457,-14.09791279,1.895115495
10.74077464,4.671388149,-13.35374451,3.928416491
10.74555146,6.392425537,-13.08036518,4.557728767
10.75031495,6.842276573,-13.26162148,3.418147087
10.7551051,7.234101295,-13.15872955,2.201995134
10.75988188,7.931010723,-12.51027489,-1.022333503
10.76464536,8.772088051,-11.59083271,-5.428118229
10.76943552,9.209974289,-10.75992489,-8.085348129
10.77421229,9.011369705,-10.14317513,-8.362915039
10.77897583,8.467002869,-9.475577354,-7.443472862
10.78376594,7.571488857,-8.76072216,-5.793622017
10.78854276,6.544968128,-8.045866013,-3.653241873
10.79330625,5.518447399,-7.543971539,-1.627717614
10.79809635,4.557130814,-7.113861561,0.1190429255
10.80287318,3.754936934,-6.817151546,1.42372942
10.80763667,3.288336515,-6.582654953,2.188834429
10.81242677,3.084946632,-6.361917019,2.496910334
10.81720359,2.9491539,-6.251249313,2.209771633
10.82196708,2.855235577,-6.169294834,1.715653777
10.82675724,2.719442844,-6.077769279,1.298704505
10.83153401,2.631506681,-5.866004944,1.001994491
10.8362975,2.853441,-5.812166214,0.822532773
10.84108766,2.847458839,-5.614758492,0.7166503668
10.84586448,2.670390129,-5.417350292,0.6358926296
10.85062797,2.413161755,-5.254638672,0.6472585201
10.85541807,1.980658889,-5.091926575,0.7208378315
10.8601949,1.470987678,-4.847260475,0.8147560954
10.86495839,0.927816987,-4.597808838,0.8410771489
10.86974849,0.3846462369,-4.267001152,0.8919246197
10.87452531,-0.1872383654,-3.984049797,0.8033902049
10.8792888,-0.8033902049,-3.672384501,0.614357233
10.88407891,-1.51106751,-3.36550498,0.2919243574
10.88885573,-2.255235434,-3.131008387,-0.02093719877
10.89361922,-2.819343328,-2.944368362,-0.2775674164
10.89840938,-3.182454109,-2.694916487,-0.4534398913
10.90318615,-3.412165165,-2.469393015,-0.5198407173
10.90794964,-3.43609333,-2.347957134,-0.5437689424
10.91273979,-3.369692564,-2.232503414,-0.4480560422
10.91751656,-3.240479946,-2.150549412,-0.3098705411
10.9222801,-3.006581545,-2.130808592,-0.1573280841
10.92707021,-2.834896564,-2.077568293,-0.02333002165
10.93184703,-2.638685226,-2.029113531,0.1770688742
10.9366238,-2.427518606,-2.009372711,0.3774677813
10.94140062,-2.179861546,-1.98963201,0.5294120312
10.94617745,-1.865205288,-2.017747641,0.6622136831
10.95095427,-1.579262972,-2.069791555,0.6897311211
10.95573104,-1.231107235,-2.102692842,0.7214360237
10.96050786,-0.8745766878,-2.169093609,0.7196413875
10.96528469,-0.4558327198,-2.250449657,0.745962441
10.97006151,-0.05982056633,-2.277967215,0.7680960894
10.97483828,0.2392822653,-2.315654039,0.7423732281
10.97960182,0.2961117923,-2.330011129,0.626919508
10.98439193,0.285344094,-2.368296146,0.3876372576
10.98916875,0.2267199457,-2.440679073,0.104685992
10.99394552,0.2823530734,-2.599801779,-0.2027917206
10.99872234,0.4097708762,-2.89830637,-0.5485545993
11.00349917,0.4265206456,-3.326621771,-1.061815023
11.00826266,0.8356932998,-3.798007727,-1.452443361
11.01305276,1.308874011,-4.388436794,-2.145165443
11.01782958,2.048854351,-5.172086239,-2.959921598
11.02259307,2.839084148,-6.056233883,-4.076771736
11.02738318,4.073182583,-7.10249567,-5.858228207
11.03216,5.674578667,-8.167302132,-8.341978073
11.03692349,7.738986492,-9.389435768,-11.48136139
11.04171359,10.93699455,-10.96869946,-16.06541061
11.04649042,18.00599098,-14.15773296,-22.63131714
11.05125391,30.74238777,-20.51187325,-30.62573624
11.05604406,41.91926193,-27.20340157,-23.78286171
11.06082083,48.68377304,-33.2943306,-16.22154236
11.06558438,47.62315369,-38.15834427,-15.65085506
11.07037448,37.45006561,-38.21756363,-14.31685638
11.0751513,24.73999214,-32.45385361,-11.63450146
11.07991479,16.12403488,-23.24986076,-9.004789352
11.0847049,11.3449707,-15.5054903,-7.674978733
11.08948172,8.417351723,-9.534201622,-7.05523777
11.09424521,6.426523209,-5.231906891,-6.830910206
11.09903531,5.184648514,-2.190030813,-6.697510719
11.10381214,3.823132277,-0.102293171,-6.451648235
11.10857562,2.478964329,1.527219057,-6.033502102
11.11336578,0.72323066,2.59740901,-5.458626747
11.11814255,-1.073180914,3.373281717,-4.797609329
11.12290604,-3.02512598,4.013361931,-3.84706068
11.1276962,-5.247459888,4.797609329,-2.737389088
11.13247297,-7.47398138,5.432903767,-1.612762451
11.13723651,-9.313464165,5.20558548,0.09631111473
11.14202661,-10.47039413,4.301098824,2.564507723
11.14680344,-11.31027412,3.040081263,5.453841209
11.15156693,-11.06082249,1.387238979,7.301698208
11.15635703,-9.458230019,-0.5072783828,7.755736351
11.16113385,-7.024130821,-2.751147747,7.700701237
11.16589734,-4.161118507,-5.33599472,7.764709473
11.17068745,-1.329811215,-8.124231339,7.958528042
11.17546427,1.4267205,-10.99801064,8.286943436
11.18022776,3.878765583,-14.05603886,7.7868433
11.18501786,6.379863262,-17.80200195,5.434100151
11.18979469,10.62473106,-21.93739891,0.337986201
11.19455818,18.50130463,-26.1655159,-5.367699623
11.19934833,28.54697227,-29.78824997,-15.55274868
11.2041251,35.74338531,-32.45983505,-23.58366013
11.20888865,34.85265732,-32.41078186,-19.80718803
11.21367875,27.68615532,-29.49811935,-11.37308598
11.21845557,17.05245018,-23.85763741,-2.967100143
11.22321906,7.883154392,-17.54238129,3.305684566
11.22800917,2.252244234,-12.04546928,5.792425632
11.23278599,-0.500099957,-7.91306448,5.25643301
11.23754948,-1.727617979,-5.087738991,3.605385542
11.24233958,-2.540579557,-3.276970625,1.530210137
11.24711641,-2.78883481,-2.086541414,-0.3266202807
11.2518799,-3.54018116,-1.057029366,-1.340578914
11.25667005,-4.686343193,-0.2745763958,-1.575075507
11.26144682,-6.32004261,0.1214357466,-1.672582984
11.26621031,-8.05065155,0.204586342,-2.234298229
11.27100047,-9.641280174,-0.1651047617,-2.638685226
11.27577724,-10.65045357,-0.7752745152,-2.239083767
11.28054078,-9.805189133,-1.982453585,-1.604985833
11.28533088,-7.546962738,-3.407977581,-1.140179992
11.29010771,-5.556134224,-4.709074974,-0.626919508
11.2948712,-4.138386726,-5.964110374,0.2931207716
11.2996613,-3.10947299,-7.142575741,1.353739381
11.30443812,-2.627319336,-8.148159027,1.94177556
11.30920161,-2.202593327,-9.289535522,2.257628202
11.31399172,-1.869990945,-10.32921696,2.48733902
11.31876854,-1.824527264,-11.25882912,2.401197433
11.32353203,-1.589432478,-12.10588837,2.318645239
11.32832219,-1.033699393,-12.75553894,2.484348059
11.33309896,-0.3984049559,-13.16351604,2.76909399
11.33786245,0.314057976,-13.49432373,3.15433836
11.3426526,1.167099237,-13.6031971,4.06660223
11.34742938,1.649253011,-13.328022,5.378467083
11.35219292,1.717448473,-12.82313633,6.621538639
11.35698302,1.677368641,-12.32184029,7.345367432
11.36175984,1.836491346,-11.83011532,7.200601578
11.36652333,1.978864312,-11.54058361,6.397809505
11.37131344,2.060220242,-11.3132658,5.860022545
11.37609026,2.288734913,-11.05244732,5.273182869
11.38085375,2.661417007,-10.83948612,4.911268711
11.38564385,2.955734253,-10.80538845,4.785047054
11.39042068,3.412763357,-10.82333469,4.830510616
11.39518417,4.151547432,-10.92263699,4.946562767
11.39997427,5.118247509,-10.95434189,5.181657314
11.40475109,6.7704916,-11.07039356,5.283352375
11.40951458,8.133802414,-11.29352474,4.806582451
11.41430474,9.311071396,-11.57946682,4.238885403
11.41908151,10.70309544,-11.97069359,3.708875179
11.42384505,12.14656639,-12.16451168,3.062813044
11.42863516,13.90768337,-11.74397373,-1.97527504
11.43341198,14.75893021,-10.7042923,-5.426323414
11.43817547,14.03749371,-9.497113228,-4.502095699
11.44296557,12.63470173,-8.34915638,-4.562514782
11.4477424,11.47537899,-7.494918823,-3.842274904
11.45250588,10.61276627,-6.870990276,-2.921636343
11.45729599,9.917651176,-6.343372822,-2.011167526
11.46207281,9.22492981,-5.819344521,-1.461416483
11.4668363,8.26241684,-5.258825779,-1.336989641
11.47162646,7.141379356,-4.625326157,-1.484746456
11.47640323,6.153143406,-3.933800459,-1.662413478
11.48116672,4.755734921,-3.325425386,-1.161117196
11.48595688,3.331407309,-3.006581545,-0.5347958803
11.49073365,2.476571321,-3.061616659,-0.2524427772
11.49549719,2.261217356,-3.577867985,0.04725824669
11.50028729,3.278765202,-4.452444553,0.2051845491
11.50506411,4.904688358,-5.267798901,0.3655036688
11.50984089,5.63090992,-5.496912003,0.7262216806
11.51461771,5.600401402,-5.593821049,1.206580877
11.51939453,5.184050083,-5.748756409,1.501496196
11.52415802,4.908875465,-5.986244202,1.551147223
11.52894813,4.904089928,-6.217151642,1.37886405
11.53372495,4.960321426,-6.366104603,1.143769264
11.53850177,4.953741074,-6.22193718,0.9559326172
11.54327859,4.785645485,-6.342176437,0.5587241054
11.54805536,4.958526611,-6.688537598,-0.04127619043
11.55283219,4.367499352,-6.790830612,-0.4229314029
11.55760901,4.045066833,-7.398607731,-1.231107235
11.56238583,3.744169235,-7.537989616,-2.324028969
11.56714932,3.111865759,-8.261817932,-4.201198578
11.57193943,2.416750908,-8.893523216,-6.160321712
11.57671625,2.157727718,-9.158528328,-7.506882668
11.58147974,2.090130568,-9.076574326,-7.569096088
11.58626984,2.710469961,-9.215956688,-6.49232626
11.59104667,3.542573929,-8.963513374,-4.91366148
11.59582349,4.336990833,-8.625527382,-3.204587698
11.60060026,4.905286312,-8.292326927,-1.921436548
11.60537708,5.271986485,-7.992625713,-0.9445667267
11.61014057,5.694917679,-7.750950813,-0.1262213886
11.61493073,6.159723759,-7.702496052,0.5288137794
11.6197075,6.477370739,-7.88494873,1.012163997
11.62447099,6.704091072,-8.21216774,1.366301775
11.62926115,7.040282249,-8.568099976,1.71924305
11.63403797,7.409375191,-8.856434822,2.053640127
11.63880146,7.688138962,-9.081958771,2.331207514
11.64359156,7.852645874,-9.318249702,2.589632273
11.64836839,7.779664516,-9.674779892,2.925823927
11.65313188,7.752745152,-9.930213928,3.122633457
11.65792198,7.890332699,-10.01635551,3.026322365
11.6626988,7.969893932,-9.934401512,2.83370018
11.66746229,8.025527,-9.808777809,2.684746981
11.6722524,7.972885132,-9.741779327,2.660818815
11.67702922,7.782057285,-9.761520386,2.503490686
11.68180604,7.613961697,-9.785448074,2.240878344
11.68658286,7.546364307,-9.775876999,2.034497499
11.69135964,7.609774113,-9.848259926,1.544566989
11.69613646,7.582256794,-9.91047287,0.8153542876
11.70091328,7.525427341,-10.04028416,0.08195417374
11.7056901,7.490133286,-10.19880867,-0.3936193287
11.71045359,7.588837147,-10.4350996,-0.6669993401
11.7152437,7.92742157,-10.78564835,-0.7453642488
11.72002052,8.271389961,-11.20379353,-0.7178468108
11.72478401,8.562117577,-11.38146114,-0.6765705943
11.72957411,8.759525299,-11.36650562,-0.3990031779
11.73435094,8.651249886,-11.21276665,-0.1052841991
11.73912776,8.338388443,-11.0063858,0.2410768867
11.74390458,8.477770805,-10.92921734,0.513858676
11.74868135,8.792427063,-10.90469074,0.5748756528
11.75345818,9.028717995,-10.89452171,0.4055834413
11.758235,9.193822861,-10.85025406,0.1453639716
11.76301182,9.202198029,-10.73958588,0.06400800496
11.76778859,9.058628082,-10.62413216,0.002392822644
11.77256542,9.323633194,-10.4793663,-0.1627119333
11.77734224,9.287740707,-10.34895802,-0.4935196638
11.78211901,9.199206352,-10.2281208,-0.9924231768
11.78689583,8.865407944,-10.12762165,-1.825723648
11.79167266,8.69192791,-10.14676476,-3.014956474
11.79643615,8.294121742,-10.11326504,-4.231706619
11.80122625,7.846065521,-10.08514881,-5.141577721
11.80600307,7.409973621,-10.12941647,-5.618945599
11.81076656,6.826124668,-10.2221384,-5.481358528
11.81555672,6.307480335,-10.42672443,-4.802394867
11.82033349,5.644070625,-10.68395329,-3.747758389
11.82509703,4.982454777,-10.95075321,-2.332403898
11.82988714,4.365106583,-11.17926693,-0.7794619799
11.83466396,3.927818298,-11.47059345,0.7489534616
11.83942745,3.299104214,-11.58843994,2.134995937
11.84421755,2.883949518,-11.6524477,2.751147747
11.84899438,2.830709219,-11.2570343,2.755933523
11.85375786,1.96151638,-12.21775246,2.477767944
11.85854797,1.371685624,-13.06720448,2.063809633
11.86332479,0.7010970116,-13.90229988,1.72223413
11.86808828,0.2404786795,-14.52921867,1.480558991
11.87287838,-0.1160518974,-15.09392548,1.204786181
11.87765521,-0.09631111473,-15.61855125,1.04685986
11.8824187,0.7734799385,-16.12283897,1.330409408
11.88720885,1.254437327,-16.55055618,1.990230203
11.89198562,0.9086744189,-16.92742538,2.885145903
11.89674917,-0.1387837082,-17.02194214,3.447459221
11.90153927,-0.4534398913,-16.90708733,3.482753277
11.90631609,-0.0197407864,-16.11625862,3.12921381
11.91107958,1.664208174,-15.16810226,4.454239368
