Time (s),Acceleration x (m/s^2),Acceleration y (m/s^2),Acceleration z (m/s^2)
10.00194837,1.542772412,-11.59322548,2.855235577
10.00673858,1.347757339,-11.74816132,2.779263496
10.0115154,1.103689432,-11.92642593,2.440080881
10.01629227,0.8865407705,-12.17228889,1.731207132
10.02106915,0.6909275651,-12.37508011,0.7196413875
10.02584602,0.6711867452,-12.60120201,-0.2255235314
10.03060956,0.8045865893,-12.84586811,-1.089332461
10.03539972,0.9966106415,-13.11027527,-1.728814363
10.0401766,1.329213023,-13.44168091,-2.013560295
10.04494014,1.677966833,-13.79761314,-2.005185366
10.04973029,1.945963025,-14.13859081,-1.925025821
10.05450717,2.251646042,-14.40778351,-1.792224169
10.05927071,2.586641312,-14.56152248,-1.568495274
10.06406087,2.879163742,-14.54656696,-1.271785259
10.06883774,3.236890793,-14.40539074,-1.009771109
10.07360128,3.65563488,-14.22174168,-0.8249256015
10.07839144,3.997808456,-13.90768337,-0.8081758618
10.08316832,4.433301926,-13.53141212,-0.8871390224
10.08793186,4.726422787,-13.19282722,-1.047458172
10.09272201,5.081159115,-12.95593834,-1.250848055
10.09749889,5.29292345,-12.79143143,-1.564307809
10.10226243,5.004588604,-12.6185503,-1.97527504
10.10705259,4.434498787,-12.35952759,-2.453241348
10.11182946,3.417548895,-12.01017475,-2.807379246
10.116593,2.112862349,-11.56032467,-2.834896564
10.12138316,1.057029366,-11.04766178,-2.435893536
10.12616003,0.8829515576,-10.63908768,-1.898106575
10.13092358,0.7722834945,-10.1772728,-1.091127157
10.13571378,0.1489532143,-9.731011391,-0.09990034252
10.14049061,-0.5533402562,-9.342776299,1.127617717
10.14525415,-1.143769264,-9.075378418,2.08534503
10.15004436,-1.368694544,-9.066405296,2.62851572
10.15482123,-1.189232826,-9.330811501,3.074178934
10.15958477,-0.6801598072,-10.01934624,3.499503136
10.16437493,-0.628115952,-10.75573826,3.729812384
10.1691518,-1.191625714,-11.43171024,3.862613916
10.17391535,-2.06560421,-12.00718403,3.857828379
10.1787055,-3.101696253,-12.51087284,3.757927895
10.18348238,-4.002593994,-12.89312649,3.34576416
10.18824592,-4.743172646,-13.2705946,2.519642353
10.19303608,-5.320441246,-13.61815166,1.29451704
10.19781295,-5.726622581,-13.86461258,0.08255238086
10.20257649,-5.990431309,-14.0620203,-1.168295622
10.20736665,-5.907878876,-14.11884975,-2.474776745
10.21214352,-5.899504185,-14.08475208,-3.463012457
10.21690707,-6.206982136,-14.0805645,-3.941577196
10.22169722,-6.704689026,-14.15892982,-3.622135162
10.2264741,-7.008577347,-14.35753441,-2.905484915
10.23123764,-7.134200573,-14.42034531,-2.449054003
10.23602779,-6.972086906,-14.09731483,-2.214557409
10.24080467,-6.357131481,-13.65763378,-2.525624275
10.24556821,-5.731408596,-13.29930782,-2.778665304
10.25035837,-4.920839787,-12.97926807,-3.10408926
10.25513524,-3.62153697,-12.70170116,-2.880958557
10.25989878,-2.222334146,-12.37567902,-2.595614433
10.26468894,-1.068993568,-12.02094269,-2.112264156
10.26946582,0.2961117923,-11.62852001,-1.13120687
10.27422936,1.883749604,-11.20558834,-0.3577269912
10.27901956,2.493919373,-10.79940701,0.123828575
10.28379639,2.797807932,-10.53918743,0.8656035662
10.28855993,2.25703001,-10.47338486,1.924427629
10.29335014,1.10010016,-10.50568771,3.375076294
10.29812696,0.8841479421,-10.29990482,4.748556614
10.3028905,1.319043517,-9.932606697,5.24506712
10.30768071,2.09072876,-9.627521515,5.581857204
10.31245753,3.232105255,-9.523433685,5.571089268
10.31722113,4.00199604,-9.530612946,4.544568539
10.32201128,4.331607342,-9.42353344,2.560918331
10.32678816,4.796412945,-9.358927727,0.8398807645
10.3315517,4.721637249,-9.113064766,-0.3978067636
10.33634186,4.25802803,-8.867800713,-1.417747378
10.34111873,3.597608805,-8.526823044,-1.836491346
10.34588227,2.517249346,-8.04287529,-1.668395638
10.35067243,1.141974568,-7.36211729,-1.388435364
10.3554493,-0.02452643216,-6.536593437,-1.094716311
10.36021285,-0.6149554253,-5.681159019,-0.7704889178
10.365003,-1.025922656,-4.824528694,-0.5246263742
10.36977988,-1.231107235,-4.010370731,-0.2697907388
10.37454342,-1.351346612,-3.25005126,-0.01016949583
10.37933358,-1.346560955,-2.513062,0.3684946895
10.38411045,-1.593619823,-1.8628124,0.733400166
10.38887399,-2.021337032,-1.320239902,1.124626637
10.39366415,-2.382055044,-0.9014959335,1.524227977
10.39844102,-2.661417007,-0.5222335458,1.93340075
10.40320457,-2.874378204,-0.1812563092,2.222334146
10.40799472,-3.074777126,0.111864455,2.391027927
10.4127716,-3.050848961,0.3200400174,2.515454769
10.41753514,-3.071187973,0.5270192027,2.462812662
10.42232529,-2.895315409,0.628115952,2.413759947
10.42710217,-2.747558594,0.6334998012,2.389233351
10.43186571,-2.533999205,0.5042873621,2.30189538
10.43665592,-2.281556368,0.2835494876,2.248056889
10.44143274,-1.947757602,-0.02931207791,2.236690998
10.44620962,-1.713261008,-0.3996013701,2.221137524
10.45098649,-1.60378933,-0.769890666,2.009372711
10.45576332,-1.385444283,-1.107278705,1.706082582
10.46054019,-1.077966571,-1.399801254,1.369292736
10.46531706,-0.7226324677,-1.543370605,0.9888339639
10.47009389,-1.01036942,-1.688136339,0.5431707501
10.47487076,-1.358525038,-1.948953986,0.2578266263
10.47964764,-1.665404558,-2.345564365,0.4031906128
10.48442446,-1.971087694,-2.837289333,0.8081758618
10.48918806,-2.100300074,-3.454637766,1.145563841
10.49397821,-2.254637241,-4.158127785,1.151545882
10.49875509,-2.397010088,-4.972883701,0.7974081635
10.50351863,-2.595614433,-5.99940443,0.4205385745
10.50830878,-2.592623234,-7.429714203,0.1716850251
10.51308566,-2.309073925,-9.206983566,-0.3326023519
10.5178492,-1.188634634,-11.39103222,-1.896311998
10.52263936,0.8279166222,-14.34676647,-5.187041283
10.52741623,3.688536167,-18.74058723,-11.89352512
10.53217977,10.71386337,-26.54178619,-25.02174568
10.53696993,23.17149544,-41.66382599,-46.10909271
10.5417468,30.32065201,-56.35874939,-48.65146637
10.54651035,19.84547234,-60.79265213,-37.54637909
10.5513005,4.724030018,-54.48157883,-21.85604286
10.55607738,-1.768894196,-43.08815384,-12.40020561
10.56084092,-1.319043517,-30.30270576,-8.346763611
10.56563108,-0.07058826834,-20.6943264,-5.288736343
10.57040795,0.4683950245,-14.24746418,-3.097508907
10.57517149,0.732203722,-9.425328255,-1.816152334
10.57996165,1.008574724,-5.936593056,-1.417149186
10.58473852,0.8925228715,-3.108874798,-1.005583763
10.58950207,1.262812138,-0.7573283911,-0.7070791125
10.59429222,1.640279889,1.431506157,-0.8638089895
10.5990691,1.420140266,3.290131092,-0.7872386575
10.60383264,0.5988038778,5.157131195,-0.3864408433
10.60862279,0.1357926875,7.039085865,1.241874933
10.61339967,-0.2494517565,8.656634331,2.068595171
10.61816321,-1.782652855,9.303294182,2.272583246
10.62295342,-3.912265062,8.545966148,2.893520832
10.62773024,-5.8983078,6.700501442,3.941577196
10.63249378,-6.38823843,4.376472473,5.135595798
10.63728399,-4.576871395,1.509272933,5.6566329
10.64206082,-2.758326292,-1.194018483,5.8983078
10.64682436,-1.380060434,-3.315854073,6.175875187
10.65161457,-0.6059823632,-5.057828903,6.494120598
10.65639139,-0.4384847581,-6.729215622,6.629314899
10.66115493,-0.6957131624,-8.729017258,6.382256031
10.66594514,-1.613360643,-11.32283688,5.721837044
10.67072201,-3.075973511,-14.93958855,5.112864017
10.67548556,-4.030111313,-20.11586189,4.363910198
10.68027571,-2.922832966,-25.74198532,-2.80857563
10.68505259,0.35174492,-31.5744915,-21.36431694
10.68981613,1.190429211,-35.19124222,-29.37548637
10.69460628,-1.031306505,-35.37429428,-20.8701992
10.69938316,-4.737190723,-32.54717255,-7.506882668
10.7041467,-6.97567606,-28.09532738,1.466202021
10.70893686,-6.196214199,-23.21935272,5.499902725
10.71371373,-3.749552965,-18.62273979,6.588038921
10.71847727,-1.919641972,-14.33898926,5.490929604
10.72326743,-1.415952802,-10.91186905,4.074378967
10.72804431,-1.726421595,-8.431110382,2.76909399
10.73280785,-2.109273195,-6.784250259,1.752742529
10.737598,-2.578266382,-5.618945599,1.087537885
10.74237488,-3.145365477,-4.82034111,0.6669993401
10.74713842,-3.733401537,-4.383651257,0.3433700502
10.75192858,-4.021736622,-4.267599106,0.0239282269
10.75670545,-4.004388809,-4.330410957,-0.2213360965
10.76146899,-3.761517286,-4.537389755,-0.4049852192
10.76625915,-3.46959281,-4.878366947,-0.3343969584
10.77103602,-3.163311481,-5.282155991,-0.1525424421
10.77579956,-2.750549555,-5.729613781,0.1333998591
10.78058972,-2.390429735,-6.205785751,0.4049852192
10.7853666,-1.983649969,-6.648457527,0.6382854581
10.79013014,-1.576271892,-7.100102901,0.8524430394
10.79492029,-1.20717907,-7.557132244,1.067198873
10.79969717,-1.014556766,-8.024331093,1.171884894
10.80446071,-0.8452646136,-8.524430275,1.358525038
10.80925087,-0.7136593461,-9.006584167,1.655833244
10.81402774,-0.4857429862,-9.473184586,2.029113531
10.81879128,-0.5485545993,-9.892526627,2.480758905
10.82358144,-0.6245267391,-10.24008465,3.023331404
10.82835832,-0.6484549642,-10.53440189,3.753740549
10.83312186,-0.6622136831,-10.86700439,4.445266247
10.83791207,-0.6771687865,-11.19541931,4.987240791
10.84268889,-0.6412764788,-11.47478104,5.222335339
10.84745243,-0.6789634228,-11.64347458,5.242076397
10.85224264,-0.6496513486,-11.72961617,5.251647472
10.85701946,-0.5593222976,-11.74457169,6.004788399
10.861783,-0.2829512656,-11.72004509,6.881757736
10.86657321,0.1435693651,-11.68056393,7.373483181
10.87135003,0.614357233,-11.49212933,7.462017536
10.87611358,1.237687469,-11.16730309,6.854240417
10.88090378,2.022533417,-10.92323494,5.419743061
10.88568061,2.833101988,-10.74736309,4.162314892
10.89044415,3.587439299,-10.53380394,3.194418192
10.89523436,4.185645103,-10.26221848,2.317448616
10.90001118,4.488935471,-9.991230965,1.470987678
10.90477477,4.511068821,-9.749555588,0.5682953596
10.90956493,4.261617184,-9.556933403,-0.4145565331
10.91434175,3.767499208,-9.336195946,-1.765304923
10.91910535,2.986242771,-9.029315948,-3.397209883
10.9238955,2.063211441,-8.721838951,-4.713262558
10.92867238,1.10608232,-8.43948555,-5.485546112
10.93343592,0.3655036688,-8.109275818,-5.822933674
10.93822608,-0.2153540403,-7.816753387,-5.815157413
10.94300295,-0.8949156404,-7.673782349,-5.518447399
10.94776649,-1.624128342,-7.699504852,-5.063810825
10.95255665,-2.119442701,-7.79820919,-4.393820763
10.95733352,-1.743171334,-7.840681553,-3.546163082
10.96209706,-1.043868899,-7.598408222,-2.600399971
10.96688722,-0.4438686073,-7.259823799,-1.648654819
10.9716641,-0.4755735099,-6.817151546,-1.096511006
10.97642764,-0.9589236975,-6.500700951,-0.6101697683
10.98121779,-1.292722464,-6.400202274,0.06879365444
10.98599467,-1.498505235,-6.410970211,0.6981059909
10.99075821,-1.844268084,-6.460022926,0.9595218897
10.99554837,-2.267797709,-6.683153629,0.7932206988
11.00032524,-2.69850564,-6.98704195,0.2105683982
11.00508878,-2.72961235,-7.275975227,-0.3846462369
11.00987894,-2.494517565,-7.554141045,-1.009172916
11.01465582,-2.3216362,-7.809575081,-1.619342685
11.01943269,-2.06261301,-7.981858253,-2.129014015
11.02420951,-1.717448473,-8.053044319,-2.625524759
11.02898639,-1.401595831,-8.288139343,-3.173480988
11.03374993,-0.6801598072,-8.690732002,-3.652643681
11.03854009,0.2410768867,-9.011369705,-4.074378967
11.04331696,1.062413216,-9.240483284,-4.481756687
11.0480805,1.733001828,-9.450452805,-4.720440865
11.05287066,2.247458696,-9.680164337,-4.660022259
11.05764753,2.679363251,-9.924830437,-4.177868366
11.06241108,3.051447153,-10.13240719,-3.406781197
11.06720123,3.30927372,-10.31486034,-2.559123755
11.07197811,3.485744476,-10.47876835,-1.80119729
11.07674165,3.53718996,-10.57986546,-1.172483087
11.08153181,3.602394581,-10.5415802,-0.6215356588
11.08630868,3.723830223,-10.46919727,-0.1034895778
11.09107835,3.889533281,-10.4350996,0.457029134
11.0958685,4.144967079,-10.49731255,1.003190875
11.10064538,4.290929317,-10.68036366,1.438684583
11.10540892,4.28315258,-10.96929741,1.60678041
11.11019913,4.189234257,-11.33599758,1.564906001
11.11497595,4.107878208,-11.69252777,1.306481123
11.11973949,4.034298897,-11.92343521,0.8171489239
11.1245297,3.926023722,-11.97667599,0.1986042857
11.12930652,3.73160696,-11.88036442,-0.4193421602
11.1340834,3.552743435,-11.65424252,-0.7639086246
11.13886027,3.399004459,-11.36590767,-0.8015955687
11.1436371,3.333201885,-11.13021469,-0.566500783
11.14841397,3.363710403,-10.97049332,-0.1489532143
11.15319085,3.376272678,-10.82632637,0.4025924206
11.15796767,3.384647608,-10.73539925,1.05523479
11.16273121,3.450450182,-10.69711399,1.75034976
11.16752142,3.468994617,-10.73539925,2.407777786
11.17229824,3.553939819,-10.87059307,3.011965513
11.17706178,3.59102869,-11.07757282,3.544966698
11.18185231,3.498904943,-11.29531956,3.919443607
11.18662914,3.324826956,-11.60877895,4.060021877
11.19139268,3.049054146,-11.9850502,3.855435371
11.19618288,2.718844652,-12.38106251,3.358326674
11.20095971,2.20618248,-12.67059422,2.574079037
11.2057233,1.532602906,-12.85005569,1.301097274
11.21051346,1.005583763,-13.14915848,-0.2751746178
11.21529028,0.756131947,-13.47697544,-1.569093466
11.22005388,0.6909275651,-13.8478632,-2.383849621
11.22484403,0.6753742099,-14.14636707,-2.710469961
11.22962085,0.9086744189,-14.30429363,-2.783450842
11.23438445,1.423131227,-14.3946228,-2.675773859
11.2391746,2.224726915,-14.40718555,-2.362912416
11.24395143,3.092125177,-14.36231995,-2.055434704
11.24871502,3.806382656,-14.19183064,-1.79521513
11.25350518,4.381856441,-13.82931805,-1.703091502
11.258282,4.884349346,-13.39980698,-1.773081541
11.26304559,5.23429966,-12.97448254,-1.942971945
11.26783575,5.517848969,-12.59342575,-2.02612257
11.27261262,5.696712494,-12.28475189,-2.18105793
11.27737617,5.489733219,-12.02453232,-2.463410854
11.28216632,5.02552557,-11.81336498,-2.77746892
11.2869432,4.238286972,-11.55553913,-2.989831924
11.29170674,3.153141975,-11.23071289,-2.912065268
11.2964969,1.954936147,-10.74197865,-2.474776745
11.30127377,1.057627559,-10.39262676,-1.971087694
11.30603731,0.3613162339,-10.14437199,-1.325025558
11.31082747,-0.2123630047,-10.01635551,-0.2087737769
11.31560434,-0.709471941,-9.887741089,1.075573802
11.32036789,-1.060020447,-9.951150894,2.056631088
11.32515804,-1.10309124,-10.27956581,2.623131752
11.32993492,-0.8033902049,-10.90528965,3.159124136
11.33469846,-0.6071787477,-11.66620636,3.619742393
11.33948861,-0.8129615188,-12.3607235,3.947559118
11.34426549,-1.589432478,-13.00319672,4.110270977
11.34902903,-2.696711063,-13.51705551,4.073182583
11.35381919,-3.75673151,-13.89990711,3.982853174
11.35859606,-4.832903385,-14.23490238,3.634099483
11.3633596,-5.685346603,-14.51605892,2.621337175
11.36814976,-6.390032768,-14.83011627,0.8542376757
11.37292664,-6.786643028,-14.99402523,-1.125224829
11.37769018,-6.803991318,-15.11845207,-2.455035925
11.38248033,-6.865008354,-15.09452343,-3.107080221
11.38725721,-6.972086906,-14.97906971,-3.442075491
11.39202075,-7.227520943,-14.78704548,-3.172284603
11.39681091,-7.342974663,-14.70568943,-2.567498684
11.40158778,-7.261618614,-14.41615868,-2.26540494
11.40635132,-6.813562393,-13.67318726,-2.480160713
11.41114148,-6.094519138,-12.89073372,-2.800798893
11.41591835,-5.207978249,-12.42652607,-3.026322365
11.4206819,-4.449453831,-11.90847969,-3.227319479
11.42547205,-3.101696253,-11.47238827,-2.730808735
11.43024893,-1.400399446,-11.11226845,-2.144567251
11.43501247,-0.5533402562,-10.41117096,-1.703689694
11.43980262,0.7746763229,-9.753145218,-1.230509043
11.4445795,1.574477315,-9.370891571,-0.9667003751
11.44934304,2.106880426,-9.129216194,-0.1196411327
11.4541332,2.29651165,-9.254241943,1.275374413
11.45891007,1.925624013,-9.400203705,2.726621389
11.46367361,1.917847395,-9.540781975,4.564907551
11.46846377,2.415554523,-9.650852203,5.013561726
11.47324065,2.663809776,-9.745966911,4.345366001
11.47800419,2.648854733,-9.774680138,3.414557934
11.48279434,2.983251572,-9.879366875,2.69312191
11.48757122,3.558725595,-9.891928673,1.979462504
11.49233476,4.010370731,-9.827920914,1.137787223
11.49712492,4.35852623,-9.850652695,0.4301098585
11.50190179,4.182653904,-9.687342644,-0.1686939895
11.50666533,4.047459602,-9.384052277,-0.3463610709
11.51145549,3.484548092,-8.966505051,-0.4013960063
11.51623236,2.574677229,-8.376075745,-0.2099701911
11.52099591,1.321436286,-7.61755085,-0.1938186288
11.52578606,0.1956132501,-6.758527756,-0.1980060786
11.53056294,-0.5682953596,-5.849853039,-0.1752742529
11.53532648,-0.8183453679,-4.948955536,-0.09810572863
11.54011664,-0.8967102766,-4.063013077,-0.007178467698
11.54489351,-1.098305583,-3.239283562,0.08434699476
11.54965705,-1.457229018,-2.39760828,0.1818545163
11.55444721,-1.796411633,-1.661217093,0.4085744619
11.55922408,-2.176272154,-1.103689432,0.8464609981
11.56398763,-2.626721144,-0.7483552694,1.252044439
11.56877778,-2.953939438,-0.498903513,1.589432478
11.57355466,-2.976671457,-0.2871387303,1.877169371
11.5783182,-3.086143017,-0.128614217,1.987837434
11.58310835,-3.294916868,-0.02811566554,2.036890268
11.58788523,-3.128017426,-0.09990034252,2.118246317
11.59264877,-3.195016384,-0.1190429255,2.007578135
11.59743893,-3.172882795,-0.07058826834,1.844268084
11.6022158,-2.810370207,-0.199800685,1.828116536
11.60699268,-2.404786825,-0.4348955154,1.945963025
11.6117695,-2.047059774,-0.679561615,1.987837434
11.61654638,-1.756331801,-0.9146564603,1.971685886
11.62132325,-1.575075507,-1.102493048,1.846660852
11.62610007,-1.518844128,-1.237089276,1.606182218
11.63087695,-1.567897081,-1.353141189,1.290329576
11.63565382,-1.418345571,-1.400399446,0.8955138922
11.64043065,-1.358525038,-1.491924882,0.5210371017
11.64520752,-1.539781332,-1.703689694,0.3014956415
11.6499844,-2.066800594,-2.080559254,0.2805584669
11.65476122,-2.730210543,-2.62253356,0.4426721931
11.65953809,-3.226721287,-3.28414917,0.6376872063
11.66430164,-3.438486099,-4.136591911,0.5096712112
11.66909179,-3.256033421,-5.109274387,0.3032902777
11.67386867,-2.421536446,-6.253642082,-0.06939185411
11.67863221,-1.656431437,-7.832306862,-0.2506481707
11.68342236,-0.6999006271,-9.641280174,-0.2781656384
11.68819924,0.1435693651,-11.67218876,-1.177866936
11.69296278,1.492523074,-14.45205021,-2.988037348
11.69775299,3.164507866,-18.37807465,-6.367300987
11.70252981,4.823930264,-23.45624161,-8.455636978
11.70729335,7.096513748,-31.88196945,-17.91027832
11.71208356,13.71625805,-44.0357132,-39.71008682
11.71686038,20.50649071,-53.18167877,-42.06642151
11.72162393,18.90389633,-53.88816071,-33.79323578
11.72641408,12.43789196,-46.57509613,-24.39722061
11.73119096,6.466004848,-34.90470123,-18.36132431
11.7359545,3.078964472,-25.34118843,-14.77448368
11.74074466,2.508276224,-18.61795425,-11.87797165
11.74552153,2.746362209,-13.54636765,-8.46102047
11.75028507,3.391826153,-9.991230965,-4.430909157
11.75507528,3.103491068,-6.856633186,-1.734796405
11.7598521,2.611765862,-4.040280819,0.4013960063
11.76461565,2.589632273,-1.487737536,2.760719061
11.76940585,2.491526604,0.9774680734,5.13021183
11.77418268,2.503490686,3.790230989,7.028916359
11.77894622,2.53280282,6.420541286,7.819146156
11.78373638,0.5473581553,7.991429329,7.5924263
11.78851325,-2.99401927,7.765905857,7.24666357
11.79327679,-5.688337803,6.318846226,7.012166977
11.798067,-6.162116528,4.501497746,7.054041386
11.80284382,-4.335794449,2.289931297,6.605386734
11.80760736,-2.275574446,0.08853443712,6.240481377
11.81239757,-0.7794619799,-1.979462504,6.349354744
11.8171744,0.109471634,-3.654438496,6.864409924
11.82193794,0.4743770957,-5.098506927,7.501499176
11.82672815,0.02572284266,-6.69511795,7.860422611
11.83150497,-1.054038405,-8.74935627,7.598408222
11.83626851,-2.596212626,-11.45085239,6.787839413
11.84105872,-4.020540237,-15.47677708,6.068198204
11.84583554,-4.339982033,-21.4462719,4.318446636
11.85059908,-1.326221943,-29.18286514,-12.80578899
11.85538929,1.411167145,-35.89353561,-30.95534897
11.86016611,-0.2560320199,-37.84548187,-27.74956512
11.86492966,-4.158127785,-36.01138306,-14.25942802
11.86971986,-6.580262184,-31.72942734,-3.46121788
11.87449669,-6.150750637,-26.21397018,2.007578135
11.87926023,-3.769293785,-20.73679924,4.607379913
11.88405044,-1.339382529,-15.73520184,4.658227444
11.88882726,-0.2715853751,-11.36231804,3.435495138
11.8935908,-0.2213360965,-8.181060791,1.666600943
