Time (s),Acceleration x (m/s^2),Acceleration y (m/s^2),Acceleration z (m/s^2)
9.003597951,2.1439970305251106,-1.3986769409401179,1.7484495981785024
9.008374774,2.268911399218393,-1.3254047071761093,1.5524937585915846
9.013138315,2.386449266605922,-1.2411727668865953,1.3580078547084573
9.017928524,2.4963576213480256,-1.1454275326212935,1.166274469840228
9.022705347,2.5984093497060043,-1.0376778116043603,0.9785371437469681
9.02746894,2.692403298281924,-0.9175029995344668,0.7959878027168014
9.032259097,2.778164481161484,-0.7845609195148625,0.6197547009889189
9.037035972,2.855544464864996,-0.6385952078903471,0.4508910197356345
9.041799513,2.924421956336419,-0.4794421523776127,0.2903642598391704
9.046589669,2.984703609994392,-0.3070368927671097,0.13904655223805804
9.051366544,3.0363250598592195,-0.12141890051684762,-0.0022940048021113718
9.056130086,3.0792521720719077,0.07726333937051451,-0.13300088779839922
9.060920242,3.113482501840939,0.2887485128113413,-0.25253549198339315
9.065697117,3.1390469272360186,0.5126595873339433,-0.36048221554194315
9.070460659,3.1560114207431877,0.7485018996638765,-0.4565522383635212
9.075250815,3.1644789086769936,0.995662261470792,-0.540585965104096
9.08002769,3.164591158984666,1.253409115241379,-0.6125541180571472
9.084791232,3.1565306301648293,1.5208937631308597,-0.6725574812477692
9.08958144,3.1405222083589286,1.797152682705361,-0.7208253130862681
9.094358263,3.1168347564610435,2.0811109346775223,-0.7577124604767573
9.099121857,3.085782398507739,2.3715866590547274,-0.7836952220569838
9.103912013,3.047725464679236,2.6672966475830555,-0.7993660218389386
9.108688888,3.003071026816414,2.9668629719833985,-0.8054269665682041
9.11345243,2.9522729610527807,3.268820639199128,-0.802682370361889
9.118242586,2.895831482341729,3.5716262366109968,-0.7920303384061944
9.123019461,2.8342921045905722,3.8736675217912455,-0.7744535074470836
9.127783003,2.768243989263894,4.173273902761515,-0.7510090442799745
9.132573159,2.6983176545908845,4.468727745883717,-0.7228180044766511
9.137350034,2.6251820271693185,4.758276439545579,-0.6910541526077414
9.142113576,2.5495408281542926,5.040145132835086,-0.6569323429728441
9.146903732,2.472128297561777,5.312550059534827,-0.6216965571956544
9.151680607,2.393704272487373,5.573712349076783,-0.5866076927399269
9.156444149,2.3150486479937964,5.821872217653997,-0.5529311949775504
9.161234357,2.2369552626316485,6.0553034246097335,-0.5219246251084516
9.16601118,2.160225263511509,6.272327871690412,-0.49482525690058154
9.170774722,2.0856600180189457,6.4713302159521175,-0.4728377965561036
9.17556493,2.014053650180163,6.650772361250734,-0.45712232156668026
9.180341753,1.9461852889470284,6.809207688526012,-0.44878253574163907
9.185105347,1.8828111229913544,6.945294881721485,-0.4488544383083167
9.189895503,1.824656361834946,7.057811204372376,-0.4582955048698694
9.194672326,1.7724072063122673,7.145665081825331,-0.4779744769839672
9.199435919,1.7267029326511436,7.207907845865307,-0.5086618551951831
9.204226076,1.6881281941523827,7.243744502295101,-0.5510211875149689
9.209002951,1.6572056428254176,7.252543387758973,-0.6056012415725462
9.213766492,1.6343889705659942,7.2338445897865,-0.6728291439173782
9.218556649,1.6200564656132945,7.1873670135727385,-0.7530045641801142
9.223333524,1.6145051751097808,7.113013990285405,-0.8462950149182953
9.228097065,1.6179457585981274,7.0108773345538395,-0.9527323299257575
9.232887222,1.6304981102207106,6.881239773090066,-1.0722103745729603
9.237664097,1.6521878192689263,6.724575681956258,-1.2044840314535834
9.242427638,1.6829435296523414,6.541550086661947,-1.3491694933904723
9.247217847,1.7225952489578735,6.333015896885813,-1.5057458838863176
9.251994669,1.7708736471939939,6.100009366001791,-1.6735582125818589
9.256758211,1.827410374208632,5.843743784555285,-1.8518216603762698
9.261548419,1.891739413289914,5.565601436156968,-2.039627175700187
9.266325242,1.963299476794989,5.267123863687039,-2.235948350099188
9.271102117,2.041437438023286,4.950000512978589,-2.439649527847364
9.275878992,2.125412782176169,4.616055840045239,-2.649495090834323
9.280655867,2.21440304828435,4.267234986247065,-2.8641598465553284
9.28543269,2.3075102234880513,3.905588143406691,-3.0822404338313114
9.290209565,2.4037680409798154,3.5332537476862993,-3.302267648075281
9.29498644,2.5021501231906087,3.152440656931083,-3.5227195756963727
9.299763263,2.601578902362723,2.7654094811053453,-3.742035415778502
9.304540138,2.700935241500269,2.374453249329649,-3.958629856652327
9.309317013,2.799068669850901,1.9818776097902788,-4.170907865507307
9.314080555,2.8948081385901285,1.589980770310473,-4.377279740782047
9.318870711,2.986973194276772,1.2010333974642224,-4.576176269646547
9.323647586,3.0743854599391995,0.8172587005499486,-4.766063826329177
9.328411128,3.1558803063560354,0.4408129332665279,-4.945459241274696
9.333201284,3.2303185892548445,0.0737665502682709,-5.112944266210062
9.337978159,3.2965983218691046,-0.28191374239114636,-5.267179456365741
9.342741701,3.353666146765381,-0.6243818049348501,-5.406917288701801
9.347531909,3.400528466395732,-0.9519275159495687,-5.531014334436466
9.352308732,3.436262088903157,-1.2629906332066958,-5.638442305949334
9.357072326,3.460024244941557,-1.5561728499312828,-5.728297802832801
9.361862482,3.471061833494528,-1.8302478507804076,-5.799810590285004
9.366639357,3.4687197609248583,-2.084169195637429,-5.8523502564716905
9.371402899,3.4524482489658324,-2.317075891087705,-5.885431116457406
9.376193055,3.421809005186712,-2.528295550994867,-5.898715262413598
9.38096993,3.3764801738251777,-2.717345100034149,-5.892013704930699
9.385733472,3.3162600139144205,-2.8839290359882694,-5.865285605000217
9.390523628,3.241069281250826,-3.027935333331435,-5.8186356523418405
9.395300503,3.150952316468011,-3.1494291351263803,-5.752309695012512
9.400064044,3.046076860976983,-3.2486444359619364,-5.666688763666662
9.404854201,2.9267326364503132,-3.3259740017087123,-5.562281661639522
9.409631076,2.7933287341265167,-3.3819578015855716,-5.439716311063555
9.414394617,2.6463898695102688,-3.4172702457125994,-5.299730057199979
9.419184774,2.486551567002708,-3.432706528787486,-5.1431591392781035
9.423961649,2.3145543477057244,-3.4291683792818914,-4.970927537359307
9.42872519,2.1312370018467925,-3.4076495047057405,-4.78403540192247
9.433515347,1.9375290346924343,-3.3692210078123788,-4.583547266628187
9.438292222,1.734442381237927,-3.3150170267214256,-4.370580235433955
9.443055763,1.5230624901589922,-3.2462208243797166,-4.146292323118944
9.447845972,1.304538881184477,-3.164051520269633,-3.9118711135633393
9.452622794,1.0800752817060657,-3.0697516208985878,-3.6685228831994334
9.457386388,0.850919447467573,-2.9645754669504183,-3.4174623184582145
9.462176544,0.618352768275313,-2.849778675934077,-3.159902936310728
9.466953419,0.38367975340301047,-2.7266086214966645,-2.8970482964725845
9.471716961,0.14821748415682395,-2.5962959556117324,-2.630084072608719
9.476507117,-0.08671488548279274,-2.460047148456175,-2.360171028002183
9.481283992,-0.3198065041482606,-2.319037993424642,-2.08843891880852
9.486047534,-0.5497650015293887,-2.1744080016627017,-1.8159813255328718
9.49083769,-0.7753263992702141,-2.0272555919620268,-1.5438513911880056
9.495614565,-0.9952646853036126,-1.87863396826141,-1.2730584232460163
9.500378107,-1.2084009846527346,-1.7295475690796493,-1.004565296603594
9.505168263,-1.4136122625188072,-1.5809489720162642,-0.7392865774078151
9.509945138,-1.6098394988167912,-1.433736143004275,-0.4780872750259193
9.51470868,-1.796095276557237,-1.2887499346848104,-0.22178212508988018
9.519498836,-1.9714707291995985,-1.1467717603495036,0.02886468754046703
9.524275711,-2.135141794907704,-1.0085213972884675,0.2731394431603596
9.529039253,-2.286374729911945,-0.874654902987435,0.5103785004497403
9.533829461,-2.4245308399178835,-0.7457626559998339,0.7399676580508432
9.538606284,-2.549070397281793,-0.6223675575208455,0.9613413074704966
9.543369878,-2.6595557209166167,-0.5049234478414476,1.1739814175260086
9.548160034,-2.755653404006745,-0.3938138033176947,1.3774163891227313
9.552936857,-2.837135680922538,-0.2893507845245226,1.571219817621124
9.557700451,-2.9038809295481993,-0.19177470561693682,1.7550091980581484
9.562490607,-2.955873309391139,-0.10125398952938937,1.928444606130969
9.567267482,-2.9932015401832146,-0.017885664520038484,2.091227385265908
9.572031024,-3.016056830852616,0.05830355426793444,2.243098867319269
9.57682118,-3.024729975056648,0.12735556813947307,2.383839151443493
9.581598055,-3.0196076368868594,0.18937856747231702,2.513265962326634
9.586361597,-3.001167858566134,0.24454407272320575,2.6312336053108893
9.591151753,-2.969974830478695,0.2930833572767426,2.737632031808847
9.595928628,-2.9266729722178715,0.3352832792493539,2.832386024057746
9.600705503,-2.871980381070084,0.3714815619682915,2.915454503767236
9.605482326,-2.8066817111334568,0.4020615741284044,2.986829964824991
9.610259201,-2.7316205518674326,0.4274466703604535,3.0465380260585424
9.615022742,-2.6476913791908,0.44809416097551386,3.0946370961396044
9.619812899,-2.555831155318939,0.46448898591801985,3.1312181390142406
9.624589774,-2.4570106554734434,0.477137172473952,3.1564045246931554
9.629353315,-2.352225600569906,0.4865591590947054,3.170351946828939
9.634143524,-2.2424876751662373,0.49328306888912016,3.1732483852932876
9.638920347,-2.1288155094961643,0.49783801599864286,3.1653140890573797
9.643683888,-2.0122257034492614,0.5007475263155301,3.146801552216131
9.648474097,-1.893723968977451,0.5025231509686326,3.1179954541310857
9.653250919,-1.7742964656644995,0.5036583468438044,3.0792125335398026
9.658014513,-1.6549014021250068,0.504622693291611,3.0308013662218007
9.662804669,-1.536460973513835,0.5058565082630179,2.9731420165177913
9.667581544,-1.4198537027126306,0.5077659205527741,2.9066455346920694
9.672345086,-1.3059072497016546,0.5107184477613734,2.831753274731512
9.677135242,-1.1953917502307647,0.5150391221473363,2.7489360105258007
9.681912117,-1.0890137412014362,0.5210071988661211,2.658692832271224
9.68668894,-0.9874107261784375,0.5288534733073365,2.561549809204387
9.691465815,-0.8911464301450065,0.5387582264653701,2.458058409272238
9.69624269,-0.8007067879569938,0.5508498096160238,2.348793670991117
9.701006232,-0.7164967059083374,0.5652038721187439,2.2343521274744473
9.705796388,-0.6388376303687103,0.5818432290068357,2.115349487361921
9.710573263,-0.5679659515270206,0.6007383582345593,1.9924180820884418
9.715336805,-0.5040322637214092,0.6218085110475503,1.8662040934701276
9.720126961,-0.44710149645005776,0.644923412906333,1.7373645798212813
9.724903836,-0.3971539217514399,0.6699055266618152,1.606564322653173
9.729667378,-0.35408703413072634,0.696532844194793,1.4744725194071813
9.734457586,-0.3177182886428379,0.7245421674521788,1.3417593506455219
9.739234409,-0.2877886713141784,0.753632834748694,1.2090924526763298
9.743997951,-0.2639670641055898,0.7834708434140213,1.0771333287329474
9.748788159,-0.24585535448681164,0.8136933154552352,0.9465337335470155
9.753564982,-0.23299422785393542,0.8439132490013246,0.8179320674039595
9.758328576,-0.22486956993244683,0.8737244950352919,0.6919498164580549
9.763118732,-0.22091939640679775,0.9027068964198367,0.569188076094603
9.767895555,-0.22054121869630267,0.9304315245776209,0.45022419334879665
9.772659149,-0.22309974838213578,0.9564659484684925,0.33560856276341566
9.777449305,-0.22793483853288846,0.9803794707848168,0.22586160759959584
9.78222618,-0.23436955827824668,1.001748267632255,0.12147097505474697
9.786989722,-0.24171829762002792,1.0201603704008706,0.022888970091059387
9.791779878,-0.24929480276334282,1.0352204319755207,-0.06946975244768867
9.796556753,-0.2564200481149388,1.0465542236830405,-0.15523022359637964
9.801333576,-0.2624298590838855,1.0538128141812726,-0.23405891660324277
9.806110451,-0.2666822090840286,1.0566763866628097,-0.3056652231727642
9.810887326,-0.268564123626592,1.054857656154274,-0.3698026549217756
9.815650867,-0.26749813321698424,1.0481048542775282,-0.4262697799869813
9.820441024,-0.2629482245243395,1.0362042545676757,-0.47491090762487287
9.825217899,-0.25442524609847444,1.0189822172870966,-0.5156165347163643
9.82998144,-0.24149173119470313,0.9963067386084405,-0.5483235674309704
9.834771597,-0.22376610646909512,0.9680884950422134,-0.5730153291439088
9.839548472,-0.20092626171086264,0.9342813800448164,-0.5897213623662575
9.844325347,-0.17271246251368508,0.8948825358349919,-0.5985170283951546
9.849102222,-0.13892959485936915,0.8499318894938589,-0.5995229041551969
9.853879044,-0.0994487378789841,0.7995112082895781,-0.5929039718129983
9.858642586,-0.05420806834863496,0.7437426947042561,-0.5788685936327431
9.863432794,-0.003213107537685189,0.6827871467598293,-0.5576672624881475
9.868209617,0.053463672279124665,0.616841713932713,-0.5295911176132784
9.872973159,0.11568385804745317,0.5461372832295961,-0.494970215622831
9.877763367,0.1832446934779678,0.4709355338407017,-0.4541715485413798
9.88254019,0.25588122929378615,0.3915257021114758,-0.40759680343885296
9.887303784,0.3332689871908993,0.30822110129385744,-0.35567986207576424
9.89209394,0.41502709509622815,0.22135544260920154,-0.2988840434675207
9.896870815,0.5007218488335188,0.13127900557668284,-0.23769909723036026
9.901634357,0.5898706536933933,0.03835470635462333,-0.17263796073364446
9.906424513,0.6819462985202049,-0.05704588697545731,-0.10423329822373616
9.911201388,0.7763815146541995,-0.15454654367285175,-0.033033844981360395
9.91596493,0.8725737723260665,-0.25377031664210475,0.04039941596932982
9.920755086,0.969890267860453,-0.3543433997891869,0.11549721321461834
9.925531961,1.0676730562866519,-0.45589885237051275,0.19168604779952086
9.930295503,1.1652442856384633,-0.5580801484997147,0.26839231855967266
9.935085659,1.2619114912819545,-0.6605445124080291,0.3450464732638805
9.939862534,1.3569729109577375,-0.7629660026617254,0.4210871460362352
9.944626076,1.4497227837882773,-0.8650383113598138,0.49596524145891335
9.949416232,1.5394565992223517,-0.9664772474587143,0.5691479264044739
9.954193107,1.625476264729523,-1.067022876905399,0.6401224918730047
9.958969982,1.7070951639917706,-1.166441296272312,0.7084000487512416
9.963746805,1.7836430803351113,-1.2645260210517124,0.7735190233274696
9.96852368,1.8544709631370189,-1.3610989745563407,0.8350484205044257
9.973300555,1.9189555178252264,-1.4560110682846885,0.8925908249311443
9.978077378,1.9765036027063607,-1.5491423694254998,0.9457851127551185
9.982854253,2.026556418097385,-1.6404018557322222,0.9943088494517225
9.987617794,2.0685934750093473,-1.7297267622144081,1.0378803523160076
9.992408003,2.1021363319543043,-1.817081527960085,1.076260399800748
9.997184826,2.1267520893509952,-1.9024563549422409,1.1092535740357934
10.00194837,2.142056631523435,-1.9858653939029651,1.1367092276170754
10.00673858,2.1477176064323507,-2.0673445753898956,1.1585220710970352
10.0115154,2.1434571330655756,-2.1469491067963267,1.1746323834361065
10.01629227,2.129054225863938,-2.2247506588893184,1.1850258537782086
10.02106915,2.1043469247026727,-2.3008342678509286,1.1897330689946028
10.02584602,2.0692341178149607,-2.3752949813440507,1.1888286671347421
10.03060956,2.023677043676698,-2.4482342795730143,1.1824301818237986
10.03539972,1.9677004563506855,-2.5197563047562124,1.170696606369991
10.0401766,1.9013934372522459,-2.5899639348695316,1.1538267086251413
10.04494014,1.8249098349357717,-2.658954739958939,1.1320571284089187
10.04973029,1.7384683135197445,-2.7268168617696418,1.1056602886975946
10.05450717,1.642351989952118,-2.7936248599181996,1.074942150087024
10.05927071,1.5369076406048663,-2.8594355703590018,1.0402398356345501
10.06406087,1.4225444587534841,-2.924284024455899,1.001919150410392
10.06883774,1.2997323463776296,-2.988179479500201,0.9603720172115973
10.07360128,1.1689997264279572,-3.0511016138927065,0.9160138470993429
10.07839144,1.0309308652543696,-3.1129969422540618,0.8692808608459187
10.08316832,0.8861626992965762,-3.173775507247002,0.8206273750968041
10.08793186,0.735381165409927,-3.233307905698391,0.7705230650676653
10.09272201,0.5793170403337318,-3.2914227065404615,0.7194502138342347
10.09749889,0.4187413017732936,-3.3479043170348355,0.6679009566188806
10.10226243,0.2544600312914351,-3.402491351648332,0.6163745268088952
10.10705259,0.0873088875671543,-3.4548755548375656,0.5653745086490255
10.11182946,-0.08185281264017515,-3.5047013249391687,0.5154060995363345
10.116593,-0.2521483596409275,-3.551565881421286,0.4669733825220624
10.12138316,-0.42269020748913216,-3.595020111953041,0.42057660694954835
10.12616003,-0.5925867601514704,-3.634570129065432,0.3767094721931071
10.13092358,-0.7609493191109669,-3.6696795585609565,0.33585640642961045
10.13571378,-0.9268991198824925,-3.699772573251652,0.2984898296305427
10.14049061,-1.0895743818795576,-3.7242376760866294,0.26506738792396467
10.14525415,-1.248137294192363,-3.7424322263410508,0.23602914553750318
10.15004436,-1.4017808589766776,-3.7536876913881514,0.21179472102091454
10.15482123,-1.5497355143490525,-3.757315594818621,0.1927603565682757
10.15958477,-1.691275459972643,-3.752614119535242,0.17929591303768924
10.16437493,-1.8257246107604557,-3.738875312263419,0.17174178851667818
10.1691518,-1.9524621070102577,-3.7153928241063774,0.17040576469550286
10.17391535,-2.070927312517252,-3.6814701108072585,0.17555979256833984
10.1787055,-2.180624235713629,-3.636429006674202,0.18743673679731546
10.18348238,-2.2811253128972426,-3.5796185779510625,0.2062271061745509
10.18824592,-2.3720744975596357,-3.5104241548876605,0.23207580571851483
10.19303608,-2.453189606085765,-3.4282764368806458,0.26507895372442786
10.19781295,-2.5242638778480235,-3.332660561772956,0.3052808141672524
10.20257649,-2.585166716904243,-3.2231250286635635,0.3526709007616205
10.20736665,-2.635843592924586,-3.09929036333982,0.40718131322254936
10.21214352,-2.6763150903248407,-2.960857416642819,0.46868436843221967
10.21690707,-2.706675106548239,-2.8076151886265377,0.5369905890527099
10.22169722,-2.727088212700464,-2.6394480751624765,0.6118471095792233
10.2264741,-2.737786202076716,-2.4563424385585413,0.6929365550773544
10.23123764,-2.7390638644436573,-2.258392409724054,0.7798764413272896
10.23602779,-2.7312740362676773,-2.045804836395923,0.8722191374522883
10.24080467,-2.714821989385944,-1.8189032999353687,0.9694524239959118
10.24556821,-2.690159232713868,-1.5781311321385545,1.0710006712588684
10.25035837,-2.6577768131220916,-1.3240533731954343,1.1762266545930709
10.25513524,-2.6181982121547187,-1.0573576221340013,1.2844340151044922
10.25989878,-2.571971944347157,-0.7788537415980132,1.3948703656248962
10.26468894,-2.5196639701176595,-0.4894723895154807,1.506731032813874
10.26946582,-2.4618500411669637,-0.19026236107562328,1.6191634170053748
10.27422936,-2.3991080987049354,0.11761326460065048,1.7312719422431255
10.27901956,-2.3320108444281993,0.4328821677086824,1.8421235602512114
10.28379639,-2.2611186009312605,0.754169004592246,1.9507537642285337
10.28855993,-2.186972572240513,1.08000277102568,2.0561730616007936
10.29335014,-2.110088606755477,1.4088252742107703,2.1573738493451167
10.29812696,-2.030951554698204,1.7390006653424803,2.2533376313221196
10.3028905,-1.9500103010186673,2.0688259743167348,2.343042514396888
10.30768071,-1.8676735432787666,2.3965425779555356,2.425470919250236
10.31245753,-1.7843063726295578,2.7203485230504096,2.4996174427872693
10.31722113,-1.7002277044054086,3.0384116157035317,2.564496811754492
10.32201128,-1.6157085926167138,3.3488831790095226,2.6191518710953132
10.32678816,-1.5309714493355424,3.649912372127952,2.662661555015553
10.3315517,-1.4461901755374273,3.9396609552423953,2.694148792860908
10.33634186,-1.3614911945993884,4.216318376794299,2.7127883048704717
10.34111873,-1.276955363771562,4.4781170517926165,2.7178142440468167
10.34588227,-1.1926207230505679,4.72334769307178,2.7085276396183273
10.35067243,-1.1084860255618505,4.950374551278545,2.6843035951605647
10.3554493,-1.0245149794120747,5.1576504143138795,2.644598190964758
10.36021285,-0.9406411185798877,5.343731213168437,2.58895503635735
