"Time (s)","Acceleration x (m/s^2)","Acceleration y (m/s^2)","Acceleration z (m/s^2)"
2.058879500E-2,-2.432508945E0,4.929960728E0,7.103895664E0
2.258879500E-2,-2.233790159E0,4.958691120E0,6.945878506E0
2.458879500E-2,-2.063801765E0,4.975450516E0,6.807014942E0
2.658279500E-2,-1.898601890E0,4.980238914E0,6.663362503E0
2.858279500E-2,-1.754949808E0,4.973056316E0,6.505345345E0
3.058354500E-2,-1.628057122E0,4.965873718E0,6.356904984E0
3.257814500E-2,-1.486799240E0,4.965873718E0,6.218040943E0
3.458231100E-2,-1.364694953E0,4.963479519E0,6.093542576E0
3.658288200E-2,-1.256955862E0,4.965873718E0,6.004957199E0
3.858300700E-2,-1.137245774E0,4.975450516E0,5.995380402E0
4.058311800E-2,-1.010353088E0,4.992209911E0,6.079177380E0
4.258411800E-2,-9.002198577E-1,5.006575108E0,6.206069946E0
4.458411800E-2,-8.020575643E-1,5.018546104E0,6.459855556E0
4.658420100E-2,-7.230489254E-1,5.030517101E0,6.751947880E0
4.858427700E-2,-6.679822803E-1,5.042488098E0,7.151779652E0
5.058434800E-2,-6.392518282E-1,5.049670696E0,7.609072208E0
5.258441400E-2,-6.248866320E-1,5.052064896E0,8.025663376E0
5.458366400E-2,-6.344634295E-1,5.040093899E0,8.454225540E0
5.658366400E-2,-6.679822803E-1,5.011363506E0,8.873210907E0
5.858366400E-2,-7.015010715E-1,4.970662117E0,9.241917610E0
6.058366400E-2,-7.278373241E-1,4.888959885E0,9.598653793E0
6.258366400E-2,-7.469909191E-1,4.781220913E0,9.919476509E0
6.458366400E-2,-7.589619160E-1,4.680664539E0,1.018044472E1
6.658366400E-2,-7.757213712E-1,4.582501888E0,1.037916374E1
6.858366400E-2,-7.996633649E-1,4.501099110E0,1.050845051E1
7.058366400E-2,-8.475474119E-1,4.434061527E0,1.054675770E1
7.258366400E-2,-9.193734527E-1,4.371812344E0,1.052281570E1
7.458366400E-2,-9.888052940E-1,4.316745758E0,1.047253704E1
7.658366400E-2,-1.034295082E0,4.261679173E0,1.036958694E1
7.858366400E-2,-1.027112484E0,4.213795185E0,1.021396351E1
8.058366400E-2,-9.935936928E-1,4.175487995E0,1.005115795E1
8.258366400E-2,-9.002198577E-1,4.158728123E0,9.852438927E0
8.458366400E-2,-7.733271718E-1,4.163516521E0,9.641749382E0
8.658409700E-2,-6.488286853E-1,4.173093796E0,9.452607155E0
8.858413000E-2,-4.955997467E-1,4.185064793E0,9.270648003E0
9.058406300E-2,-3.112462163E-1,4.197035789E0,9.105448723E0
9.258499600E-2,-1.292868853E-1,4.204218388E0,8.959402084E0
9.458419600E-2,8.140286058E-2,4.204218388E0,8.808567047E0
9.658409600E-2,2.801215947E-1,4.199429989E0,8.674491882E0
9.858409600E-2,4.932055473E-1,4.175487995E0,8.552388191E0
1.005840620E-1,6.799532771E-1,4.132391930E0,8.703222275E0
1.025837280E-1,8.092401624E-1,4.072536945E0,9.091083527E0
1.045837280E-1,8.140285611E-1,3.974374771E0,9.993697166E0
1.065836940E-1,7.350199223E-1,3.869029999E0,1.099926186E1
1.085836600E-1,6.560112834E-1,3.787626982E0,1.180850220E1
1.105836260E-1,6.440402865E-1,3.722983599E0,1.233283234E1
1.125835920E-1,7.541735172E-1,3.660734415E0,1.260098267E1
1.145839920E-1,9.097966552E-1,3.596091032E0,1.275181770E1
1.165839920E-1,1.151610970E0,3.509899616E0,1.277336502E1
1.185839920E-1,1.448492050E0,3.416525841E0,1.274224091E1
1.205839920E-1,1.728613615E0,3.289633036E0,1.263450146E1
1.225840580E-1,2.001552582E0,3.138798475E0,1.245493698E1
1.245840580E-1,2.233790159E0,2.995146275E0,1.226340008E1
1.265840580E-1,2.437297344E0,2.844311714E0,1.203834534E1
1.285840580E-1,2.592920542E0,2.707842112E0,1.181089592E1
1.305840580E-1,2.712630510E0,2.592920542E0,1.160978317E1
1.325840910E-1,2.806004286E0,2.492363930E0,1.141585255E1
1.345841240E-1,2.873042107E0,2.418143749E0,1.122910500E1
1.365841570E-1,2.920926094E0,2.363077164E0,1.106390572E1
1.385841900E-1,2.937685490E0,2.331952572E0,1.090828228E1
1.405842230E-1,2.911349297E0,2.327163935E0,1.076223564E1
1.425842560E-1,2.863465309E0,2.334346771E0,1.063294888E1
1.445842890E-1,2.772485495E0,2.370259762E0,1.049169159E1
1.465842890E-1,2.681505919E0,2.420537949E0,1.036479855E1
1.485842550E-1,2.583343744E0,2.513911724E0,1.023551178E1
1.505842210E-1,2.487575531E0,2.650381327E0,1.009425354E1
1.525841870E-1,2.408566952E0,2.789244890E0,9.967360497E0
1.545841530E-1,2.336740971E0,2.966415882E0,9.850045204E0
1.565841190E-1,2.262520552E0,3.174711466E0,9.754277229E0
1.585840850E-1,2.197877169E0,3.371036053E0,9.682451248E0
1.605840850E-1,2.135627985E0,3.586514235E0,9.634567261E0
1.625840850E-1,2.080561161E0,3.809175014E0,9.601048470E0
1.645841180E-1,2.035071373E0,4.010287762E0,9.579500198E0
1.665841510E-1,1.991975784E0,4.211400986E0,9.584288597E0
1.685841840E-1,1.941697598E0,4.402936935E0,9.627384186E0
1.705842170E-1,1.889025092E0,4.568136692E0,9.684844971E0
1.725842500E-1,1.826775908E0,4.718971729E0,9.771036148E0
1.745842830E-1,1.764526606E0,4.848258495E0,9.847650528E0
1.765843160E-1,1.678335428E0,4.961085320E0,9.888352394E0
1.785843160E-1,1.565807939E0,5.052064896E0,9.857227325E0
1.805843160E-1,1.455674648E0,5.123890877E0,9.787796021E0
1.825842490E-1,1.323993564E0,5.169380665E0,9.632172585E0
1.845842490E-1,1.168370485E0,5.181351662E0,9.421483040E0
1.865842490E-1,1.010353088E0,5.171774864E0,9.222764015E0
1.885842490E-1,8.044517636E-1,5.111919880E0,9.028834343E0
1.905842490E-1,5.817909837E-1,4.996998310E0,8.897152901E0
1.925842150E-1,4.070142806E-1,4.867412090E0,8.822932243E0
1.945841810E-1,3.160346150E-1,4.699818134E0,8.810961723E0
1.965841470E-1,2.873041928E-1,4.544194698E0,8.736741066E0
1.985841130E-1,2.753331959E-1,4.405331135E0,8.588300705E0
2.005840790E-1,2.561795712E-1,4.319139957E0,8.202834129E0
2.025840450E-1,2.274491638E-1,4.266467571E0,7.745541573E0
2.045840110E-1,1.867477298E-1,4.271255970E0,7.091924667E0
2.065839770E-1,1.843535304E-1,4.307168961E0,6.371270180E0
2.085839770E-1,2.011129409E-1,4.347870350E0,5.712864399E0
2.105840100E-1,2.466027737E-1,4.393360138E0,5.076006889E0
2.125840430E-1,2.825157940E-1,4.426878929E0,4.481945515E0
2.145840760E-1,3.040636182E-1,4.443638325E0,3.969586372E0
2.165841090E-1,2.968810201E-1,4.424484730E0,3.543418407E0
2.185841420E-1,2.561795712E-1,4.359841347E0,3.263296843E0
2.205841750E-1,2.011129409E-1,4.240131378E0,3.107673883E0
2.225842080E-1,1.580173075E-1,4.103661537E0,3.023876667E0
2.245842080E-1,1.316810995E-1,3.952826977E0,2.990357876E0
2.265841740E-1,1.221042871E-1,3.749319792E0,2.992752075E0
2.285841400E-1,1.532289088E-1,3.509899616E0,2.985569477E0
2.305841060E-1,2.035071403E-1,3.282450438E0,2.971204281E0
2.325840720E-1,2.825157940E-1,3.038241863E0,2.954444885E0
2.345840380E-1,3.543418646E-1,2.786850691E0,3.002328873E0
2.365840040E-1,3.782838583E-1,2.564189911E0,3.141192675E0
2.385840040E-1,2.657563984E-1,2.351106167E0,3.555389643E0
2.405840040E-1,4.548983276E-2,2.149993181E0,4.201824188E0
2.425840370E-1,-1.723825186E-1,1.977610588E0,4.838681698E0
2.445840700E-1,-3.519476354E-1,1.817199111E0,5.487809658E0
2.465841030E-1,-3.926490843E-1,1.673547029E0,6.119878769E0
2.485841360E-1,-3.495534360E-1,1.558625340E0,6.701669693E0
2.505841690E-1,-1.436520964E-1,1.472434044E0,7.352892876E0
2.525842020E-1,9.576806426E-2,1.410184860E0,7.972990990E0
2.545842350E-1,4.118026793E-1,1.367089152E0,8.650549889E0
2.565842680E-1,7.038952708E-1,1.321599364E0,9.352050781E0
2.585842680E-1,9.265560508E-1,1.273715258E0,9.986514091E0
2.605842680E-1,1.027112484E0,1.216254473E0,1.062097836E1
2.625842680E-1,1.000776291E0,1.161187768E0,1.120995140E1
2.645842680E-1,9.217676520E-1,1.118092179E0,1.170315742E1
2.665842680E-1,7.541735172E-1,1.101332784E0,1.210298920E1
2.685842680E-1,5.267243981E-1,1.120486379E0,1.239747524E1
2.705842340E-1,3.040636182E-1,1.156399369E0,1.261055946E1
2.725842000E-1,5.027823523E-2,1.233013868E0,1.272069263E1
2.745841660E-1,-2.202665508E-1,1.347935557E0,1.272308731E1
2.765841320E-1,-4.692635238E-1,1.470039845E0,1.267280865E1
2.785840980E-1,-7.182605267E-1,1.625662923E0,1.248845577E1
2.805840640E-1,-9.289502501E-1,1.802833915E0,1.221312237E1
2.825837970E-1,-1.089361787E0,1.970427990E0,1.193060589E1
2.845837630E-1,-1.209071875E0,2.140416384E0,1.157387066E1
2.865837630E-1,-1.304839969E0,2.286462545E0,1.123868179E1
2.885837960E-1,-1.376665950E0,2.403778553E0,1.085082150E1
2.905838290E-1,-1.422155857E0,2.461239338E0,1.041507626E1
2.925838620E-1,-1.443703651E0,2.477998734E0,1.001524544E1
2.945838950E-1,-1.410184860E0,2.420537949E0,9.632172585E0
2.965839280E-1,-1.316810966E0,2.329558372E0,9.340080261E0
2.985839610E-1,-1.213860273E0,2.252943754E0,9.119813919E0
3.005839940E-1,-1.125274777E0,2.193088770E0,8.937853813E0
3.025839940E-1,-1.070208192E0,2.138022184E0,8.698433876E0
3.045839600E-1,-1.034295082E0,2.061407566E0,8.435071945E0
3.065839260E-1,-1.024718285E0,1.958456993E0,8.066365242E0
3.085838920E-1,-1.041477680E0,1.857900500E0,7.700051785E0
3.105838580E-1,-1.082179189E0,1.752555609E0,7.333739281E0
3.125838240E-1,-1.077390790E0,1.663970232E0,7.060800076E0
3.145837900E-1,-1.034295082E0,1.592144132E0,6.871658325E0
3.165837560E-1,-9.074024558E-1,1.534683347E0,6.783072472E0
3.185837560E-1,-7.062895298E-1,1.474828243E0,6.780678272E0
3.205837890E-1,-5.003881454E-1,1.414973259E0,6.814197540E0
3.225838220E-1,-2.657563984E-1,1.347935557E0,6.931513309E0
3.245838550E-1,-4.788403213E-2,1.288080573E0,7.132626057E0
3.265838880E-1,1.292868853E-1,1.237802267E0,7.350498676E0
3.285839210E-1,2.561795712E-1,1.197100878E0,7.644985199E0
3.305839540E-1,3.351882398E-1,1.168370485E0,7.934683800E0
3.325839870E-1,3.854664862E-1,1.158793569E0,8.274660110E0
3.345840200E-1,3.998316824E-1,1.146822572E0,8.629002571E0
3.365840200E-1,4.022258818E-1,1.134851575E0,8.940248489E0
3.385840200E-1,4.070142806E-1,1.115697980E0,9.234735489E0
3.405840200E-1,4.405331016E-1,1.091755986E0,9.514857292E0
3.425839200E-1,4.884171486E-1,1.070208192E0,9.780612946E0
3.445839200E-1,5.267243981E-1,1.041477680E0,1.012059021E1
3.465839200E-1,4.644751251E-1,9.888052940E-1,1.050126839E1
3.485838860E-1,3.447650373E-1,9.193734527E-1,1.083166790E1
3.505838520E-1,1.053448766E-1,8.044517636E-1,1.107108784E1
3.525838180E-1,-2.011129409E-1,6.775590777E-1,1.119319248E1
3.545837840E-1,-4.932055473E-1,5.674257874E-1,1.126501846E1
3.565837500E-1,-8.068459630E-1,4.860229492E-1,1.130811405E1
3.585837160E-1,-1.084573388E0,4.333505034E-1,1.134881496E1
3.605836820E-1,-1.319205165E0,4.141969085E-1,1.137994003E1
3.625836480E-1,-1.458068848E0,3.806780577E-1,1.136796856E1
3.645836480E-1,-1.525106430E0,3.232172430E-1,1.132487297E1
3.665836810E-1,-1.489193439E0,1.867477298E-1,1.119798088E1
3.685837140E-1,-1.403002143E0,-9.576806799E-3,1.100405025E1
3.705837470E-1,-1.321599364E0,-1.987187415E-1,1.080772591E1
3.725837800E-1,-1.247379065E0,-3.734954596E-1,1.056830597E1
3.745838130E-1,-1.170764685E0,-4.932055473E-1,1.026903057E1
3.765838460E-1,-1.103726983E0,-5.650315881E-1,9.974543571E0
3.785838790E-1,-1.031900883E0,-5.482721925E-1,9.613018990E0
3.805838790E-1,-9.672574997E-1,-4.620809257E-1,9.186851501E0
3.825838450E-1,-9.169792533E-1,-3.639186621E-1,8.777442932E0
3.845838110E-1,-9.097966552E-1,-2.370259613E-1,8.310573578E0
3.865837770E-1,-9.409212470E-1,-1.173158810E-1,7.860463619E0
3.885837430E-1,-1.051054597E0,2.394201700E-3,7.350498676E0
3.905837090E-1,-1.221042871E0,1.221042871E-1,6.821380138E0
3.925836750E-1,-1.400607944E0,2.250549644E-1,6.364087582E0
3.945836410E-1,-1.628057122E0,3.256114423E-1,5.985803604E0
3.965836410E-1,-1.881842494E0,4.357447028E-1,5.732017994E0
3.985836740E-1,-2.116474390E0,5.410895944E-1,5.562029839E0
4.005837070E-1,-2.370259762E0,6.512228847E-1,5.497386456E0
4.025840730E-1,-2.609679937E0,7.493851185E-1,5.511751652E0
4.045841060E-1,-2.803610086E0,8.236053586E-1,5.559635639E0
4.065841390E-1,-2.944868088E0,8.547300100E-1,5.672163010E0
4.085841720E-1,-3.031059265E0,8.571242094E-1,5.834969044E0
4.105842050E-1,-3.083731890E0,8.092401624E-1,6.004957199E0
4.125842380E-1,-3.100491285E0,7.230489254E-1,6.227617741E0
4.145842380E-1,-3.102885485E0,6.344634295E-1,6.447884560E0
4.165842380E-1,-3.066972494E0,5.458779931E-1,6.699275494E0
4.185842380E-1,-2.966415882E0,4.525041282E-1,6.945878506E0
4.205842380E-1,-2.832340717E0,3.615244627E-1,7.149385452E0
4.225842380E-1,-2.588132143E0,2.537853718E-1,7.273883820E0
4.245842380E-1,-2.298433542E0,1.628057212E-1,7.295432091E0
4.265842040E-1,-2.056619167E0,1.005564705E-1,7.266701221E0
4.285841700E-1,-1.910573006E0,7.900865376E-2,7.142202854E0
4.305841360E-1,-1.872265697E0,9.816227108E-2,6.960243702E0
4.325841020E-1,-1.872265697E0,1.340752989E-1,6.783072472E0
4.345840680E-1,-1.881842494E0,1.867477298E-1,6.596324921E0
4.365840340E-1,-1.853112102E0,2.298433632E-1,6.407183170E0
4.385840000E-1,-1.802833915E0,2.585737705E-1,6.237194538E0
4.405839660E-1,-1.719036818E0,2.681505978E-1,6.050446987E0
4.425839660E-1,-1.632845521E0,2.633621991E-1,5.870882034E0
4.445839990E-1,-1.534683347E0,2.274491638E-1,5.664980412E0
4.465840320E-1,-1.422155857E0,1.556231081E-1,5.423166275E0
4.485840650E-1,-1.309628367E0,6.943184882E-2,5.188534260E0
4.505840980E-1,-1.170764685E0,-5.267243832E-2,4.932354927E0
4.525841310E-1,-1.007958889E0,-2.250549644E-1,4.644751072E0
4.545841640E-1,-8.547300100E-1,-3.974374831E-1,4.362235546E0
4.565841970E-1,-6.919242740E-1,-5.961562395E-1,4.036623955E0
4.585841970E-1,-5.123591423E-1,-8.068459630E-1,3.706224203E0
4.605841630E-1,-3.303998411E-1,-1.017535686E0,3.392583847E0
4.625841290E-1,-1.723825186E-1,-1.206677675E0,3.122039080E0
4.645840950E-1,-2.394201607E-2,-1.376665950E0,2.887407303E0
4.665840610E-1,1.005564705E-1,-1.553836942E0,2.674323320E0
4.685840270E-1,2.130839527E-1,-1.735796213E0,2.485181332E0
4.705839930E-1,3.016694188E-1,-1.900996208E0,2.331952572E0
4.725839590E-1,3.543418646E-1,-2.073378563E0,2.217030764E0
4.745839590E-1,3.447650373E-1,-2.257732153E0,2.147598982E0
4.765839920E-1,3.064578176E-1,-2.422932148E0,2.104503393E0
4.785840250E-1,2.035071403E-1,-2.576161146E0,2.097320795E0
4.805840580E-1,5.267243832E-2,-2.712630510E0,2.128445387E0
4.825840910E-1,-1.029506698E-1,-2.829946518E0,2.173935175E0
4.845841240E-1,-2.944868207E-1,-2.925714493E0,2.260126352E0
4.865841570E-1,-5.219359994E-1,-3.002328873E0,2.387019157E0
4.885841900E-1,-7.445967197E-1,-3.064578056E0,2.516305923E0
4.905842230E-1,-1.015141487E0,-3.129221678E0,2.681505919E0
4.925842230E-1,-1.273715258E0,-3.196259260E0,2.846705914E0
4.945842230E-1,-1.556231141E0,-3.299209833E0,3.047818661E0
4.965842230E-1,-1.838746905E0,-3.454833031E0,3.280056238E0
4.985842230E-1,-2.085349798E0,-3.624821424E0,3.500322819E0
5.005842230E-1,-2.305616140E0,-3.857059002E0,3.749319792E0
5.025842230E-1,-2.497152328E0,-4.149151325E0,4.019864559E0
5.045841890E-1,-2.655169725E0,-4.438849926E0,4.268861771E0
5.065841550E-1,-2.786850691E0,-4.778826714E0,4.529829502E0
5.085841210E-1,-2.889801502E0,-5.145438671E0,4.790797710E0
5.105840870E-1,-2.966415882E0,-5.483021259E0,5.023334503E0
5.125840530E-1,-3.009511471E0,-5.820603371E0,5.250783443E0
5.145840190E-1,-3.031059265E0,-6.117484570E0,5.468656063E0
5.165839850E-1,-3.040636063E0,-6.395212173E0,5.660192013E0
5.185839510E-1,-3.033453465E0,-6.644208908E0,5.842151642E0
5.205839510E-1,-3.014299870E0,-6.852504730E0,6.007351398E0
5.225839840E-1,-2.992752075E0,-7.017704487E0,6.148609161E0
5.245840170E-1,-2.961627483E0,-7.142202854E0,6.275501728E0
5.265840500E-1,-2.930502892E0,-7.233182430E0,6.383241177E0
5.285840830E-1,-2.894589901E0,-7.290643215E0,6.486191750E0
5.305841160E-1,-2.873042107E0,-7.326556683E0,6.586748123E0
5.325841490E-1,-2.863465309E0,-7.355287075E0,6.680121899E0
5.345841820E-1,-2.877830505E0,-7.386411667E0,6.783072472E0
5.365841820E-1,-2.918531895E0,-7.422324657E0,6.895600319E0
5.385841480E-1,-2.964021683E0,-7.455843449E0,6.996156693E0
5.405841140E-1,-3.031059265E0,-7.482179642E0,7.096713066E0
5.425840800E-1,-3.112462282E0,-7.496544838E0,7.180510044E0
5.445833800E-1,-3.193865061E0,-7.491756439E0,7.242759228E0
5.465833460E-1,-3.287238836E0,-7.465420246E0,7.269095421E0
5.485833120E-1,-3.371036053E0,-7.434295654E0,7.278672218E0
5.505832780E-1,-3.466804028E0,-7.379229069E0,7.245153427E0
5.525823780E-1,-3.550601006E0,-7.331345081E0,7.209240437E0
5.545815110E-1,-3.622427225E0,-7.290643215E0,7.170933247E0
5.565806440E-1,-3.691859007E0,-7.259518623E0,7.127837658E0
5.585797770E-1,-3.763684988E0,-7.247547626E0,7.087136269E0
5.605789100E-1,-3.828328609E0,-7.245153427E0,7.058405876E0
5.625780760E-1,-3.904942989E0,-7.261912823E0,7.046434879E0
5.645779760E-1,-4.000710964E0,-7.295432091E0,7.056011677E0
5.665775090E-1,-4.096478939E0,-7.331345081E0,7.072771072E0
5.685770420E-1,-4.204218388E0,-7.384017467E0,7.103895664E0
5.705769080E-1,-4.302380562E0,-7.436689854E0,7.137414455E0
5.725764080E-1,-4.395754337E0,-7.498939037E0,7.178115845E0
5.745759080E-1,-4.486733913E0,-7.568370819E0,7.225999832E0
5.765757740E-1,-4.568136692E0,-7.635408401E0,7.271489620E0
5.785752740E-1,-4.659116745E0,-7.714416981E0,7.321768284E0
5.805747740E-1,-4.759673119E0,-7.807791233E0,7.381623268E0
5.825742400E-1,-4.853046894E0,-7.896376610E0,7.441478252E0
5.845737060E-1,-4.958691120E0,-7.994538784E0,7.508515835E0
5.865735390E-1,-5.076006889E0,-8.102277756E0,7.577947617E0
5.885733720E-1,-5.190928459E0,-8.202834129E0,7.644985199E0
5.905728380E-1,-5.329792023E0,-8.305785179E0,7.723993778E0
5.925723040E-1,-5.497386456E0,-8.399158478E0,7.798214436E0
5.945717700E-1,-5.662586212E0,-8.490138054E0,7.882011414E0
5.965712360E-1,-5.856516838E0,-8.571541786E0,7.975385189E0
5.985707360E-1,-6.043264389E0,-8.640973091E0,8.061576843E0
6.005702690E-1,-6.268319130E0,-8.698433876E0,8.157344818E0
6.025698020E-1,-6.522104740E0,-8.746317863E0,8.253112793E0
6.045700020E-1,-6.756736279E0,-8.784625053E0,8.336909294E0
6.065699020E-1,-6.996156693E0,-8.818143845E0,8.408735275E0
6.085694350E-1,-7.230788231E0,-8.856451035E0,8.468590736E0
6.105689680E-1,-7.434295654E0,-8.894758224E0,8.516474724E0
6.125694010E-1,-7.618649006E0,-8.937853813E0,8.552388191E0
6.145696340E-1,-7.769483566E0,-8.985737801E0,8.581118584E0
6.165705000E-1,-7.889194012E0,-9.033622742E0,8.605060577E0
6.185713660E-1,-7.982567787E0,-9.086295128E0,8.636184692E0
6.205722320E-1,-8.059182167E0,-9.141361237E0,8.676886559E0
6.225730650E-1,-8.121431351E0,-9.196428299E0,8.719982147E0
6.245731650E-1,-8.176498413E0,-9.261071205E0,8.782231331E0
6.265736310E-1,-8.229170799E0,-9.320926666E0,8.849268913E0
6.285740970E-1,-8.286631584E0,-9.383175850E0,8.949825287E0
6.305742300E-1,-8.360851288E0,-9.435848236E0,9.067141533E0
6.325747300E-1,-8.432677269E0,-9.476549149E0,9.179668427E0
6.345752300E-1,-8.516474724E0,-9.498097420E0,9.299378395E0
6.365755630E-1,-8.612242699E0,-9.486125946E0,9.414299965E0
6.385760630E-1,-8.705616951E0,-9.457395554E0,9.517251015E0
6.405765630E-1,-8.813355446E0,-9.387964249E0,9.617807388E0
6.425770630E-1,-8.942642212E0,-9.289801598E0,9.715970039E0
6.445775630E-1,-9.074323654E0,-9.208398819E0,9.806949615E0
6.465776960E-1,-9.237129211E0,-9.155726433E0,9.902717590E0
6.485778620E-1,-9.438241959E0,-9.112630844E0,9.996091843E0
6.505783950E-1,-9.627384186E0,-9.040804863E0,1.007509995E1
6.525789280E-1,-9.828496933E0,-8.935460091E0,1.015410900E1
6.545794610E-1,-1.001285076E1,-8.842085838E0,1.022114658E1
6.565799940E-1,-1.021635818E1,-8.787019730E0,1.028578949E1
6.585805270E-1,-1.044620132E1,-8.758289337E0,1.033846188E1
6.605810270E-1,-1.070716953E1,-8.796596527E0,1.038155746E1
6.625815270E-1,-1.093940639E1,-8.851662636E0,1.041268253E1
6.645819930E-1,-1.118122101E1,-8.952219009E0,1.042225933E1
6.665820930E-1,-1.139909363E1,-9.064746857E0,1.041747093E1
6.685825590E-1,-1.160738945E1,-9.203610420E0,1.038155746E1
6.705830250E-1,-1.180131912E1,-9.323320389E0,1.030015469E1
6.725834910E-1,-1.196651936E1,-9.426271439E0,1.020438671E1
6.745841240E-1,-1.210298920E1,-9.526827812E0,1.007509995E1
6.765841240E-1,-1.221791077E1,-9.610625267E0,9.943418503E0
6.785837570E-1,-1.230649567E1,-9.665691376E0,9.787796021E0
6.805837900E-1,-1.234719753E1,-9.675268173E0,9.629778862E0
6.825838230E-1,-1.235677433E1,-9.663297653E0,9.488520622E0
6.845838560E-1,-1.231128407E1,-9.610625267E0,9.349657059E0
6.865838890E-1,-1.222509289E1,-9.519645691E0,9.227552414E0
6.885839220E-1,-1.213411331E1,-9.421483040E0,9.126996040E0
6.905839550E-1,-1.202637482E1,-9.287407875E0,9.045593262E0
6.925839880E-1,-1.191145229E1,-9.126996040E0,8.976161003E0
6.945839880E-1,-1.180850220E1,-8.973767281E0,8.918700218E0
6.965837880E-1,-1.171512794E1,-8.808567047E0,8.873210907E0
