Time (s),Acceleration x (m/s^2),Acceleration y (m/s^2),Acceleration z (m/s^2)
6.001440528,0.801073951103584,-2.198923490426895,-0.05901338997388002
6.006440528,0.7409054319637882,-2.4589088885051416,-0.36468984619053035
6.011440528,0.6842263159416071,-2.7219029772579173,-0.6657969307624547
6.016440561,0.6319636916042132,-2.987328324342797,-0.9603680230876555
6.021440561,0.584956899944674,-3.2545292537835486,-1.2464943865573501
6.026440561,0.54394529182664,-3.522764924953929,-1.5223435948528314
6.031440561,0.5095573193445492,-3.791203489701502,-1.7861774421221988
6.036440561,0.4823011001970919,-4.058917546684777,-2.036369151220544
6.041440561,0.46255658949159223,-4.3248810942395535,-2.2714196795270265
6.046439861,0.4505694880911167,-4.587968160036042,-2.489972910401648
6.051439827,0.44644700926963027,-4.846953257145547,-2.690829512380532
6.056439827,0.45015561455613406,-5.100513781837645,-2.8729592492198286
6.06143986,0.46152081372682685,-5.347234428843369,-3.035511532587305
6.066439893,0.48022910168029387,-5.585613655897096,-3.177824025636049
6.071439893,0.5058320758549248,-5.814072182670032,-3.2994291294733498
6.076439893,0.5377527424522726,-6.0309634617696934,-3.400058214853818
6.081439859,0.575293979404093,-6.234586013531435,-3.4796434970435124
6.086439825,0.6176490803094251,-6.4231974739530555,-3.5383174910273976
6.091439791,0.6639142576726533,-6.595030168048102,-3.5764100250277964
6.096439791,0.7131029366851647,-6.748307990456659,-3.5944428306338314
6.101439824,0.7641616237784807,-6.881264352311125,-3.593121766196064
6.106439857,0.8159870890409532,-6.992160938584843,-3.573326765929144
6.11143989,0.8674445605032162,-7.079307013296255,-3.53609964074232
6.11643989,0.9173865934374513,-7.141079010196912,-3.4826298890068967
6.12143989,0.9646722511285364,-7.1759401527101,-3.41423870683009
6.126439856,1.0081862166572102,-7.182459857570422,-3.332361417696462
6.131439856,1.0468574491919194,-7.1593326905818255,-3.2385285695530075
6.136439856,1.0796770035929293,-7.105396658988506,-3.1343459722490428
6.141439889,1.1057146486343572,-7.019650642029832,-3.021473968534434
6.146439889,1.124133946201777,-6.901270778323057,-2.9016062466286763
6.151439889,1.1342054904591719,-6.749625644981296,-2.7764485108539247
6.156439855,1.1353180510489997,-6.564290078319223,-2.647697328249639
6.161439821,1.1269874166516092,-6.3450574994441205,-2.5170194630825797
6.166439787,1.1088627933424027,-6.091950620027382,-2.3860319978832845
6.171439787,1.0807306745311387,-5.805230414207426,-2.2562835196685866
6.176439787,1.0425161637664613,-5.485403251947128,-2.129236624178149
6.18143982,0.9942817958694126,-5.133226097341095,-2.006251960173078
6.186439853,0.9362239632636153,-4.74970968263064,-1.8885740010884646
6.191439886,0.8686671109554007,-4.336119575657335,-1.7773186937869325
6.196440552,0.7920559138191473,-3.893975066068036,-1.6734630953764433
6.201440552,0.7069456923206834,-3.425045804757908,-1.5778370707855112
6.206440518,0.6139913562580709,-2.9313461426753786,-1.4911170875950417
6.211440518,0.51393518934641,-2.415127129868132,-1.413822111563616
6.216440518,0.4075937997380992,-1.8788661538817806,-1.3463115767657032
6.221440551,0.2958445626236974,-1.325254218302063,-1.2887853781025795
6.226440551,0.17961187130595058,-0.757180886882032,-1.241285810648661
6.231440551,0.05985349362496634,-0.17771694546847458,-1.2037013595087351
6.236440551,-0.06245269711078492,0.4099051381793082,-1.1757722256589431
6.241440551,-0.1863213816555275,1.0023128485193529,-1.1570974580398186
6.246440551,-0.31077164845939437,1.596017214536344,-1.1471435503403613
6.251440517,-0.43483788644889254,2.187438197668856,-1.1452543524404395
6.256440517,-0.5575796043559321,2.77293168702143,-1.1506621409003048
6.261440517,-0.6780901056005976,3.3488178889556934,-1.1624996895479813
6.26644055,-0.7955039870477095,3.911410875019493,-1.1798131795745017
6.27144055,-0.9090034656958752,4.457049030805905,-1.2015757882830027
6.27644055,-1.0178235685282495,4.982126129147871,-1.2267017965968847
6.281440516,-1.12125624667238,5.483122734499643,-1.2540610575286395
6.286440482,-1.2186534952931916,5.956637631857137,-1.2824936709665113
6.291440448,-1.3094295751435867,6.3994189634705325,-1.3108247142775271
6.296440448,-1.3930624404905139,6.8083947501666255,-1.337878883304668
6.301440448,-1.4690944814929603,7.180702471549087,-1.3624949043222985
6.306440481,-1.537132687563785,7.513717380907241,-1.383539584352325
6.311440514,-1.596848332604805,7.805079236547014,-1.3999213748351729
6.316440547,-1.6479762742313182,8.052717141570318,-1.4106033318794082
6.321440547,-1.6903139481414746,8.25487219878496,-1.414615365068242
6.326440547,-1.72372012642382,8.410117706096303,-1.4110656759285254
6.331440513,-1.748113495448854,8.517376639858897,-1.39915129642114
6.336440513,-1.7634710955765243,8.57593619855126,-1.378167646846683
6.341440513,-1.7698266517448675,8.585459206058779,-1.3475170410063204
6.346440546,-1.7672688116514554,8.545992202192586,-1.3067160740174044
6.351440546,-1.755939297298403,8.457970077385415,-1.2554018347117608
6.356440546,-1.7360309666742288,8.32221713848085,-1.1933368900838963
6.361440512,-1.7077857756255006,8.139944522937952,-1.1204129940402248
6.366440478,-1.6714926255837463,7.912743909409664,-1.036653477138356
6.371440444,-1.6274850805321452,7.642577503361885,-0.9422142786501366
6.376440444,-1.5761389359770988,7.331764307118767,-0.837383587769913
6.381440477,-1.5178696231831765,6.982962714554651,-0.7225800677582047
6.38644051,-1.4531294330221125,6.5991495019205155,-0.5983496458186361
6.391440543,-1.3824045451385323,6.183595318500977,-0.46536086298088947
6.396440543,-1.3062118497041888,5.739836814565723,-0.32439879247074105
6.401440543,-1.225095551120253,5.271645580012206,-0.17635755202772463
6.406440509,-1.139623546196276,4.782994105644138,-0.022231455105091804
6.411440509,-1.050383574213779,4.278019020357724,0.13689513272510329
6.416440509,-0.9579791433508922,3.7609819014243793,0.2998591432410384
6.421440542,-0.8630252473684147,3.2362280010237967,0.4654312487789467
6.426440575,-0.7661438980143461,2.708143279351541,0.6323292636257491
6.431440575,-0.6679595116902621,2.18111018189973,0.7992323448439308
6.436440575,-0.5690942026135924,1.6594626445408143,0.9647958115630983
6.441440575,-0.47016304783212287,1.147440853238121,1.127666381875318
6.446440575,-0.37176940068997827,0.6491463237480657,1.286497610677739
6.451440575,-0.2745003374137301,0.16849789862327702,1.439965301859733
6.456440541,-0.1789223252651741,-0.2908107177627672,1.5867826651761332
6.461440541,-0.08557719939994601,-0.7253512523558514,1.7257149919741865
6.466440541,0.005021471146106045,-1.1319983496832862,1.8555936337619514
6.471440574,0.09239155980927606,-1.507963628136706,1.9753290821075307
6.476440574,0.17608504893370058,-1.850825709397252,2.0839229661829437
6.481440574,0.25569015349753255,-2.158555665547367,2.1804788042432333
6.48644054,0.3308328905087113,-2.4295373856389153,2.264211366698457
6.49144054,0.40117810375827245,-2.6625824366236226,2.33445453105044
6.49644054,0.4664299736028171,-2.8569390820309075,2.3906675333087692
6.501440573,0.5263320589586619,-3.0122952242106993,2.4324395473299556
6.506440573,0.5806669329639214,-3.128775150050389,2.4594925533208416
6.511440573,0.629255484292079,-3.2069300826479656,2.4716824892868177
6.516440573,0.6719559624487852,-3.2477226685550074,2.46899871347512
6.521440573,0.7086628471836056,-3.252505657470856,2.4515618403092154
6.526440573,0.739305619266356,-3.222995154078461,2.419620045212747
6.531440539,0.7638475025773006,-3.161238935649187,2.373543963492335
6.536440539,0.7822842363993845,-3.069580430175622,2.313820333760418
6.541440539,0.7946429228956505,-2.9506190348785934,2.2410445561980246
6.546440572,0.800980979035489,-2.8071675215700718,2.155912349578284
6.551440605,0.8013852057298837,-2.6422073220460183,2.059210698078323
6.556440605,0.7959709705977515,-2.458842512856688,1.9518082795945042
6.561440571,0.7848814854436337,-2.2602533246919494,1.83464556199653
6.566440537,0.7682871459104759,-2.049649988107949,1.7087247432190926
6.571440503,0.74638488953589,-1.8302276957770267,1.5750996961582593
6.576440469,0.7193975201638954,-1.6051234136006183,1.4348660609515038
6.581440469,0.6875729418185534,-1.3773752109182436,1.2891516063415274
6.586440502,0.651183244072356,-1.149884705963088,1.1391069594201915
6.591440535,0.6105235838244442,-0.9253831391418407,0.9858967800513088
6.596440568,0.5659108152304789,-0.7064014962415045,0.8306914335359857
6.601440568,0.5176818300567131,-0.4952450088733281,0.6746591933526089
6.606440568,0.4661915844840733,-0.293972262859192,0.5189589856648588
6.611440534,0.4118108046562839,-0.10437904923684117,0.3647336691572707
6.616440534,0.35492338115672534,0.07201300065183824,0.21310382787026708
6.621440534,0.2959234811072568,0.2339630428786461,0.06516204119715784
6.626440567,0.23521242468268572,0.38051304006329956,-0.0780324158114428
6.631440567,0.17319538954160466,0.510985374177444,-0.21545849706392206
6.636440567,0.11027802105536685,0.6249763197408845,-0.34613799575743753
6.641440533,0.046863037397187106,0.7223456986742662,-0.46913990385168775
6.646440499,-0.01665307423808961,0.8032030822598355,-0.5835845837948037
6.651440465,-0.07988317137056006,0.8678909393763952,-0.6886478123714666
6.656440465,-0.14245228330759696,0.9169651535884117,-0.78356475049388
6.661440498,-0.20400006228007772,0.9511733452324009,-0.8676338840565347
6.666440531,-0.2641827816212799,0.9714314390696867,-0.940220969855422
6.671440564,-0.32267482065844294,0.9787989143005215,-1.0007630073353655
6.676440597,-0.3791695963659042,0.9744531628433777,-1.0487722419460404
6.681440597,-0.43337992493096006,0.9596633649110211,-1.0838401895920162
6.686440563,-0.485037821135064,0.9357642691781566,-1.1056416545765988
6.691440529,-0.5338937687371947,0.904130239294782,-1.113938696203876
6.696440529,-0.5797155197208088,0.8661499001530562,-1.1085844825523359
6.701440529,-0.6222865031593774,0.8232016871017861,-1.0895269545981425
6.706440562,-0.6614039443960908,0.7766305701009681,-1.056812210479135
6.711440562,-0.6968768111311775,0.7277261934363801,-1.0105875087567329
6.716440562,-0.7285237139739335,0.6777026408148731,-0.9511037814527501
6.721440562,-0.7561708944593352,0.6276800060769911,-0.8787175427299199
6.726440562,-0.7796504332210127,0.5786679218878705,-0.7938920775784428
6.731440562,-0.7987988050405616,0.5315511728933772,-0.697197796871081
6.736440528,-0.8134558961504537,0.4870774960285692,-0.5893116505884778
6.741440528,-0.823464582854615,0.44584764882067485,-0.4710154996452472
6.746440528,-0.8286709497426529,0.408307806387346,-0.3431933582132473
6.751440561,-0.8289252011662074,0.37474432904800253,-0.20682743243273527
6.756440561,-0.8240832920919628,0.34528092460908794,-0.06299289778165518
6.761440561,-0.8140092749992844,0.3198782119495034,0.0871486238389027
6.766440527,-0.7985783292671539,0.2983356749992774,0.24235690497361115
6.771440527,-0.7776804095749662,0.2802959780945326,0.4013222653611685
6.776440527,-0.7512244212438812,0.2652515946055363,0.5626760044645226
6.78144056,-0.7191428041345391,0.2525536803628182,0.7250020538418978
6.78644056,-0.6813963836090053,0.24142310153421817,0.8868497604895956
6.79144056,-0.6379793280432494,0.2309635031259547,1.0467476832339053
6.79644056,-0.5889240383055249,0.2201762792171676,1.2032182561169653
6.80144056,-0.5343057863091965,0.2079772795694009,1.3547931465149405
6.80644056,-0.4742469178771913,0.1932150597497951,1.5000291123333456
6.811440526,-0.40892044011669765,0.17469045398717448,1.637524142778891
6.816440492,-0.3385528253088042,0.15117722255137453,1.7659336514732937
6.821440492,-0.26342588159220615,0.12144349965986005,1.8839864794424757
6.826440492,-0.18387756481467085,0.0842737450403151,1.9905004590231234
6.831440525,-0.10030163504326207,0.03849088356862732,2.0843972880822723
6.836440525,-0.013146094456109488,-0.017021695995048762,2.164716467106553
6.841440525,0.07708962035092082,-0.08329861928402457,2.230628059489604
6.846440491,0.1698586803819502,-0.16127181792941372,2.281444047387322
6.851440457,0.26457209042350793,-0.2517509637192742,2.3166280713909453
6.856440423,0.36060501092493474,-0.3554053601338338,2.3358033615430225
6.861440423,0.45730405061611407,-0.4727475846063167,2.338758689495643
6.866440456,0.5539953713553839,-0.6041191468621206,2.3254521965812023
6.871440489,0.6499934171338884,-0.749678394986741,2.2960129800465867
6.876440522,0.7446100545347415,-0.9093908625426187,2.2507403496197274
6.881440522,0.8371638932034929,-1.083022208355445,2.1901006989571408
6.886440522,0.9269895430144419,-1.2701338568275329,2.1147219714692658
6.891440488,1.013446560625089,-1.4700814020347408,2.0253857377289233
6.896440488,1.0959278429481285,-1.6820157945045444,1.9230169424036088
6.901440488,1.173867239457732,-1.9048872863897348,1.8086714226520912
6.906440521,1.2467461794485446,-2.137452069538289,1.6835213471418122
6.911440521,1.3140991439872316,-2.378281502342625,1.5488387746000118
6.916440521,1.3755178541931719,-2.625773785639294,1.4059775815628477
6.921440487,1.4306540958208063,-2.878167915484688,1.256354058361165
6.926440453,1.4792211525778833,-3.1335597113155704,1.101426517571774
6.931440419,1.5209938746539242,-3.389919691694627,0.9426742973851896
6.936440419,1.5558074617144646,-3.6451125464774985,0.781576570711976
6.941440419,1.5835550876772462,-3.8969179339676243,0.6195913857408667
6.946440452,1.604184534121684,-4.143052314998043,0.45813536117182446
6.951440485,1.6176940274915308,-4.381191523944109,0.29856443771768587
6.956440518,1.6241274920183393,-4.608993770674435,0.1421560489526212
6.961440518,1.6235694369825024,-4.824122768111733,-0.00990697557224349
6.966440518,1.616139694718122,-5.024270687149835,-0.1565505179842222
6.971440484,1.6019882142772863,-5.207180653399645,-0.2968210902576112
6.976440484,1.5812900939212717,-5.37066851825842,-0.4298954163085584
6.981440484,1.554241004167686,-5.512643660465102,-0.5550875800569077
6.986440517,1.5210531149931708,-5.631128604064216,-0.671853685142426
6.991440517,1.4819516002321096,-5.724277274146886,-0.7797940123670877
6.996440517,1.4371717529744503,-5.790391751146711,-0.8786527003340066
7.001440517,1.3869567101775944,-5.827937425196839,-0.9683150148380643
7.006440517,1.331555753830959,-5.83555649153208,-1.0488023137315439
7.011440517,1.2712231304443202,-5.812079764500881,-1.1202648552708148
7.016440483,1.206217311261713,-5.756536820670666,-1.182972637487575
7.021440149,1.1368006036729998,-5.668164509982413,-1.2373044922788206
7.026440149,1.0632390207491136,-5.546413896563929,-1.2837356901377162
7.031439515,0.9858023205682419,-5.390955706312549,-1.3228243397393187
7.036439515,0.9047641385503037,-5.201684366399803,-1.3551968899275946
7.041439515,0.820402151680807,-4.978720723286344,-1.3815330574205655
7.046439481,0.7329982299972023,-4.722413522137417,-1.4025505086426555
7.051438781,0.6428385450212057,-4.433339723319411,-1.4189896165161586
7.056438781,0.5502136150702671,-4.112303722315133,-1.4315985928805774
7.061438814,0.45541827360231224,-3.7603355285778117,-1.441119266474968
7.066438847,0.3587515511862355,-3.378687946357944,-1.4482737383178057
7.071438847,0.2605164677512322,-2.9688327859170816,-1.4537521045510646
7.076438847,0.1610197416387339,-2.532456116812672,-1.4582013949053043
7.081438847,0.060571434835228075,-2.071452556777489,-1.4622158352448182
7.086438847,-0.04051543349759096,-1.5879185711742971,-1.4663285057672317
7.091438847,-0.14192526329357538,-1.0841447404129334,-1.471004432276681
7.096438813,-0.2433401920353907,-0.5626069376211322,-1.4766351173672114
7.101438813,-0.3444403063025276,-0.025956347481438567,-1.48353449270682
7.106438546,-0.4449037005154499,0.5229917500700362,-1.4919362530778748
7.111438579,-0.5444063453882961,1.0812705105378817,-1.501992516441207
7.116438579,-0.6426217422084639,1.6457754474364932,-1.5137737414771575
7.121438579,-0.7392203569563293,2.213279817023903,-1.527269824913277
7.126438545,-0.8338688489758582,2.780451522626522,-1.5423922952231137
7.131438511,-0.9262291307530711,3.3438715778453663,-1.5589775161073485
7.136438477,-1.015957316700632,3.900054145200562,-1.5767908117692409
7.141438477,-1.1027026380280036,4.445468140128185,-1.5955314260074114
7.14643851,-1.1861064162996888,4.976560360479277,-1.6148382282479186
7.151438543,-1.265801199165494,5.489780069615835,-1.634296081326878
7.156438576,-1.3414101676573067,5.981604927364905,-1.6534427876982685
7.161438576,-1.4125469253868952,6.44856812755092,-1.6717765325291514
7.166438576,-1.4788157759046778,6.88728656363859,-1.6887637434946716
7.171438876,-1.5398125853292903,7.294489805696042,-1.7038472875576154
7.176438842,-1.59512631326018,7.667049633415157,-1.7164549245481537
7.181439508,-1.6443412762961063,8.002009832559034,-1.7260079363717926
7.186439541,-1.6870401857844037,8.296615927365645,-1.7319298496256672
7.191439574,-1.7228079756533063,8.548344490667334,-1.733655168429916
7.196439574,-1.7512364086921335,8.754931648375367,-1.7306380333222942
7.20144024,-1.7719294220370123,8.914400377004052,-1.722360721183822
7.206440206,-1.784509146312942,9.0250861832652,-1.7083419006460006
7.211440172,-1.7886225087601313,9.08566075422422,-1.6881445576023668
7.216440138,-1.7839483090130812,9.095153175277527,-1.6613835064636562
7.221440138,-1.77020463689753,9.05296833079543,-1.6277324046181134
7.226440171,-1.7471564844913345,8.958902127593941,-1.5869301900650334
7.231440204,-1.7146233897968812,8.813153213169281,-1.5387868652162233
7.236440237,-1.672486937068639,8.616330897751197,-1.483188553174388
7.241440237,-1.6206979297811868,8.369459030900995,-1.420101756169009
7.246440237,-1.559283047151844,8.073975628939312,-1.3495767491748056
7.251440203,-1.488350794723647,7.731728098261913,-1.2717500451496453
7.256440469,-1.4080965643259205,7.344963950894991,-1.1868458719884134
7.261440469,-1.318806629145416,6.916316961866344,-1.0951766054178915
7.266440502,-1.2208609157289432,6.448788772760004,-0.9971421069867151
7.271440502,-1.1147344161339692,5.945726002076974,-0.8932279225646426
7.276440502,-1.0009971294211193,5.410792980832309,-0.7840023050792227
7.281440502,-0.8803124513759947,4.847940291284798,-0.6701120363610927
7.286440502,-0.7534339639498765,4.261369347782079,-0.5522770375231124
7.291440502,-0.6212006107282804,3.655493321193446,-0.43128377537202767
7.296440468,-0.4845302811235144,3.0348947719255266,-0.3079774935014709
7.301440434,-0.3444118632869977,2.4042804205413595,-0.18325332035688066
7.306440434,-0.20189586338256502,1.768433548833593,-0.05804633267512306
7.311440467,-0.05808372641332732,1.132164587021934,0.06667931804492606
7.3164405,0.08588396941230468,0.5002605035803908,0.18994207570929178
7.3214405,0.22884023825986796,-0.12256632833408657,0.3107552717319506
7.3264405,0.36960509601328995,-0.7317290619342011,0.4281398327640981
7.331440466,0.5069993955836933,-1.3228163361607512,0.5411371751227714
7.336440432,0.6398588194263358,-1.8916404637337043,0.6488220487753159
7.341440398,0.7670477611532903,-2.434283035190419,0.7503151011335111
7.346440398,0.887472839417976,-2.9471371343656005,0.8447949492110226
7.351440431,1.0000958073745314,-3.4269453925488604,0.9315095694449588
7.356440464,1.10394564832806,-3.870833164473776,1.0097868305410047
7.361440497,1.1981296809739563,-4.276336188346263,1.0790440043936451
7.366440497,1.281843533563745,-4.641422192409535,1.138796097385123
7.371440497,1.3543798830719649,-4.964506029740748,1.1886628551365777
7.376440463,1.4151358915929966,-5.2444580584209755,1.2283743120231922
7.381440463,1.4636193073678487,-5.4806056325629005,1.2577747828387995
7.386440463,1.4994532315472193,-5.672727726333808,1.2768252256382964
7.391440496,1.5223795826067341,-5.821042872134037,1.2856039388908587
7.396440496,1.5322613159743397,-5.926190748694532,1.2843055899512095
7.401440496,1.529083474610961,-5.989207898231203,1.2732386036407475
7.406440462,1.5129531555324751,-6.011498177961302,1.2528209684052074
7.411440428,1.4840984773805752,-5.994798655740406,1.223574542807026
7.416440394,1.4428666261015455,-5.9411417394485335,1.1861179671963435
7.421440394,1.389721041222055,-5.852814383648398,1.1411583044700517
