Time (s),Acceleration x (m/s^2),Acceleration y (m/s^2),Acceleration z (m/s^2)
9.000886532,0.10663237045165631,1.0854557027992657,0.43086427841574515
9.005675959,0.3774857164538203,1.1547526744394272,0.4041688488403074
9.010452053,0.6446329279075453,1.2253162517559752,0.3753899875025726
9.015214865,0.906757980089308,1.2972151032701955,0.3444490085497928
9.020004293,1.162588668746302,1.3704914356021944,0.3112796103820106
9.024780386,1.410907243458013,1.4451580199372094,0.2758293586360458
9.029543199,1.6505605624680466,1.5211955780533166,0.23806110474099934
9.034332626,1.88046966211771,1.5985505806328963,0.19795432251248213
9.03910872,2.0996386390685586,1.6771335042474858,0.15550634489597198
9.043871532,2.30716274980724,1.756817585985164,0.11073348302953355
9.048660959,2.5022356395084757,1.8374381064246688,0.06367201038566864
9.053437053,2.684155621210755,1.9187922228154473,0.014378995873650513
9.058199865,2.8523309364371032,2.000639365126284,-0.037067028681287986
9.062989293,3.00628393982639,2.0827021982742844,-0.090565579522477
9.067765386,3.1456541629064487,2.16466814454691,-0.14599392151863608
9.072528199,3.2702002256147393,2.2461914512152807,-0.2032069678243581
9.077317626,3.379800578235205,2.32689577983388,-0.262037386774221
9.08209372,3.474453070712686,2.406377285889321,-0.32229592283872316
9.086856532,3.554273360512537,2.484208150352869,-0.38377193714957036
9.091645959,3.6194921840765537,2.5599405182780455,-0.4462341716444698
9.096422053,3.6704515303055243,2.633110793817433,-0.509431739200919
9.101184865,3.7075997672096292,2.7032442359026962,-0.5730953401852735
9.105974293,3.7314857847523717,2.7698597943835823,-0.6369387036371482
9.110750386,3.7427522278219927,2.8324751227311147,-0.7006602488623921
9.115513199,3.742127903052755,2.89061170055554,-0.7639449605696719
9.120302626,3.730419451748757,2.943799997236704,-0.8264664679448843
9.12507872,3.7085023883108756,2.9915846069657017,-0.8878893153342793
9.129841532,3.67731160923011,3.033529285490863,-0.9478714096231197
9.134630959,3.6378314818061996,3.0692218198697567,-1.0060666270468817
9.139407053,3.5910856242222637,3.0982786645499374,-1.0621275601102254
9.144169865,3.538126489438049,3.1203492801152786,-1.1157083835340114
9.148959293,3.480024864585509,3.1351201150193315,-1.1664678167096985
9.153735386,3.417859395214049,3.1423181755583682,-1.2140721590241645
9.158498199,3.352706239891316,3.141714135172604,-1.258198373626075
9.163287626,3.285628955382961,3.133124940828969,-1.2985371947016235
9.16806372,3.2176687060359574,3.1164158816256733,-1.3347962330293752
9.172826532,3.1498348833060414,3.0915020927387142,-1.366703054352218
9.177615959,3.0830962129497146,3.058349476251902,-1.39400820473859
9.182392053,3.0183724186883043,3.016975029089726,-1.4164881563676353
9.187154865,2.9565265026257297,2.9674465769863825,-1.4339481458662102
9.191944293,2.898357694775394,2.909881921947846,-1.44622487538403
9.196720386,2.844595116940569,2.8444474188064794,-1.4531890441192432
9.20149648,2.7958921998406407,2.7713560040983283,-1.4547476752345163
9.206272626,2.7528218865007896,2.690864707531332,-1.4508462003442635
9.21104872,2.715872649153375,2.6032716827059184,-1.441470261361658
9.215811532,2.685445340912418,2.508912799458944,-1.4266471878396993
9.220600959,2.661850897084118,2.408157845195464,-1.4064471073698384
9.225377053,2.6453088941209453,2.301406386822674,-1.3809836474043415
9.230139865,2.635946967000631,2.189083348384055,-1.3504141892735138
9.234929293,2.6338010783934367,2.0716343621930555,-1.3149396393547528
9.239705386,2.638816625584154,1.9495209531766284,-1.2748036884494025
9.244468199,2.6508503639121175,1.823215617263522,-1.2302915384983337
9.249257626,2.6696731185580895,1.693196855011749,-1.1817280857516306
9.25403372,2.6949732498114978,1.559944221311334,-1.1294755611233047
9.258809813,2.7263608304111204,1.4239334510042536,-1.0739306411644896
9.263585959,2.7633724871049816,1.285631718750928,-1.0155210561026145
9.268362053,2.805476852243577,1.1454930895763056,-0.9547017338489541
9.273124865,2.8520805651358825,1.003954214364819,-0.8919505299885223
9.277914293,2.902534757281086,0.861430322202891,-0.8277636029758415
9.282690386,2.9561419506984814,0.7183115588754706,-0.7626505007796652
9.287453199,3.0121632946406907,0.5749597179268144,-0.6971290299987796
9.292242626,3.0698260631395864,0.4317054073760027,-0.6317199811307681
9.29701872,3.128331334160418,0.2888456913157173,-0.5669417844428005
9.301781532,3.186861770624449,0.14664224112703547,-0.5033051700416326
9.306570959,3.2445894241688116,0.0053200258583313755,-0.4413079035404701
9.311347053,3.3006834842021195,-0.13493343457545484,-0.3814296654126479
9.316109865,3.3543178975511987,-0.2739682362942619,-0.32412713790959974
9.320899293,3.404678787756381,-0.41167166857034393,-0.26982935847983397
9.325675386,3.4509716078377295,-0.5479671989671132,-0.2189333931091399
9.330438199,3.4924279660662676,-0.6828128723182574,-0.1718003770347536
9.335227626,3.5283120708113556,-0.8161991374886008,-0.1287519639684688
9.34000372,3.557926747709878,-0.9481461238560425,-0.09006721838803157
9.344779813,3.58061898999041,-1.078700397100966,-0.055979978718275446
9.349555959,3.5957850105534472,-1.2079312309925898,-0.02667671241503951
9.354332053,3.6028747721223837,-1.335926438279471,-0.00229487715088296
9.359108147,3.601395979196831,-1.4627878094473912,0.01707820449371649
9.363884293,3.590917522417235,-1.5886262129959932,0.03140595620428509
9.368660386,3.571072372070658,-1.7135564150610514,0.04070265107140833
9.373423199,3.5415599226707726,-1.837691679759588,0.04503301940025413
9.378212626,3.502147794741987,-1.9611382146411278,0.044511380241259106
9.38298872,3.452673103119377,-2.0839895281407097,0.039300321605730784
9.387751532,3.39304320330914,-2.2063207679700523,0.029608959618733756
9.392540959,3.323235928850881,-2.3281831109566617,0.015690811318778076
9.397317053,3.243299333294117,-2.449598275932034,-0.0021586807754515763
9.402079865,3.1533509504294948,-2.5705532318432933,-0.0236049320411621
9.406869293,3.0535765858686355,-2.690995173270072,-0.04827726596521082
9.411645386,2.9442286520438534,-2.8108268349277474,-0.07577219059498994
9.41642148,2.825624057389855,-2.92990221549892,-0.10565686223643642
9.421197626,2.698141659201447,-3.048022779234144,-0.1374726997723989
9.42597372,2.562219288879951,-3.1649342011785544,-0.17073911566871208
9.430736532,2.4183503584604393,-3.2803237185961565,-0.20495733234810498
9.435525959,2.2670800588464077,-3.3938181471769107,-0.23961425483525028
9.440302053,2.1090011632838452,-3.504982615940919,-0.27418637229615433
9.445064865,1.944749454232697,-3.6133200694165755,-0.30814366242235847
9.449854293,1.7749987976056207,-3.718271579653447,-0.34095347383410485
9.454630386,1.600455894831902,-3.819217503885835,-0.37208436316794596
9.459393199,1.421854749857068,-3.9154795161273825,-0.40100986560300134
9.464182626,1.239950894604848,-4.006323532614495,-0.4272121804462134
9.46895872,1.0555154223406091,-4.090963541838431,-0.45018575703353236
9.473721532,0.869328883637017,-4.168566339970208,-0.4694407704496168
9.478510959,0.682175104186138,-4.238257161870416,-0.48450648115383066
9.483287053,0.494834987481693,-4.2991261866670145,-0.494934477171195
9.488049865,0.30808036836261415,-4.350235885152295,-0.500301801651579
9.492839293,0.1226679855482893,-4.390629164107485,-0.5002139719100124
9.497615386,-0.06066635734359443,-4.419338250315045,-0.494307898194124
9.502378199,-0.24121337214782163,-4.435394244759272,-0.4822547111184121
9.507167626,-0.4182955377693423,-4.437837265659371,-0.46376250575840977
9.51194372,-0.591271953884229,-4.425727087800352,-0.4385790077035261
9.516706532,-0.7595427296364083,-4.398154175373687,-0.4064941619918938
9.521495959,-0.9225528438288472,-4.354250996481246,-0.3673426400868418
9.526272053,-1.0797954183583534,-4.293203499895779,-0.3210062533930222
9.531034865,-1.230814353578682,-4.214262628893184,-0.26741625483621045
9.535824293,-1.3752062828692375,-4.116755743163781,-0.20655550330437353
9.540600386,-1.5126218139399035,-4.000097818020745,-0.13846045973521576
9.545363199,-1.6427660363043664,-3.863802290271788,-0.06322297872509017
9.550152626,-1.765398287751076,-3.7074914220259703,0.019008143901960123
9.55492872,-1.8803311871540274,-3.5309060571390924,0.10802590870181501
9.559691532,-1.9874289560193887,-3.333914649720425,0.2035641759207735
9.564480959,-2.086605066100128,-3.1165214499210174,0.3052970921412123
9.569257053,-2.1778192646076273,-2.878873738927065,0.41283891298892267
9.574033199,-2.2610740414963524,-2.6212680125508014,0.5257442483558563
9.578809293,-2.336410614634027,-2.34415502093756,0.6435087498322197
9.583585386,-2.4039045181994156,-2.048143580620413,0.7655702536742177
9.588348199,-2.463660887296644,-1.734003084422645,0.8913103872690883
9.593137626,-2.515809537474799,-1.4026646445223088,1.020056642886882
9.59791372,-2.5604999414882204,-1.0552208143180029,1.1510849193709682
9.602676532,-2.5978962071574143,-0.6929238454845107,1.283622529994099
9.607465959,-2.628172159629381,-0.31718244767984777,1.4168516726138916
9.612242053,-2.6515066287333218,0.0704429702672355,1.5499133561249665
9.617004865,-2.6680790373862333,0.46824658710978234,1.681911774747579
9.621794293,-2.678065379921414,0.8743849809999501,1.8119191187846568
9.626570386,-2.6816346697170785,1.2868864504965185,1.9389808070989867
9.631333199,-2.678945923858289,1.7036618150901353,2.062121122746332
9.636122626,-2.6701457393922774,2.122516650973924,2.180349229023508
9.64089872,-2.655366501820185,2.541164902461542,2.292665538769304
9.645661532,-2.6347252524861418,2.9572437935185225,2.3980684052522863
9.650450959,-2.608323227825973,3.368329947444858,2.495561098545975
9.655227053,-2.5762460700217202,3.7719566059732434,2.5841590269841883
9.659989865,-2.538564695372942,4.16563182219124,2.6628971590751433
9.664779293,-2.495336793769267,4.546857485213985,2.730837597138751
9.669555438,-2.4466089204911237,4.913149019035358,2.7870772500414884
9.674318199,-2.3924191307419385,5.262055584068255,2.8307555489096736
9.679107626,-2.3328000981686565,5.591180597985567,2.8610621467090174
9.68388372,-2.2677826511660166,5.898202382829754,2.877244540086509
9.688646532,-2.197399654799732,6.1808947380677575,2.8786155498257724
9.693435959,-2.1216901615439423,6.437147234361225,2.864560594613668
9.698212105,-2.040703750605282,6.664985020312026,2.8345446915163044
9.702974865,-1.9545049733381186,6.862587934339795,2.7881191156019023
9.707764293,-1.8631778210905228,7.028308716154027,2.7249276505491795
9.712540438,-1.7668301317313408,7.160690116977128,2.6447123619199013
9.717303199,-1.6655978521130144,7.258480714701795,2.5473188251788565
9.722092626,-1.5596490758697323,7.320649249444257,2.4327007416542052
9.726868772,-1.4491877792770491,7.346397306394227,2.300923877554363
9.731631532,-1.3344571823999285,7.335170186370714,2.152169263943024
9.736420959,-1.2157426683374228,7.286665819958502,1.9867355992138802
9.741197105,-1.0933741998577513,7.200841598370514,1.8050408000572262
9.745959918,-0.9677281799091789,7.077919013062886,1.607622652115547
9.750749293,-0.839228710231924,6.918386016406956,1.395138517437224
9.755525438,-0.7083482104767407,6.7229970371741645,1.1683640624291336
9.760288251,-0.5756073687659536,6.49277060699474,0.9281909772690204
9.765077626,-0.44157440340155024,6.22898457708357,0.6756236656666376
9.769853772,-0.30686362428518965,5.933168928152297,0.4117748924670047
9.774616584,-0.17213329139386768,5.607096200302557,0.1378603858837781
9.779406011,-0.038082776186681086,5.252769593582921,-0.14480759885183023
9.784182105,0.09455096001697379,4.872408813576111,-0.43482773694128996
9.788958199,0.22499754889587426,4.468433759686926,-0.7307180837080243
9.793734345,0.352458030063377,4.0434461765926475,-1.0309254756830981
9.798510438,0.4761102618571094,3.6002094115048076,-1.3338358297677997
9.803286532,0.5951148848833948,3.141626441412907,-1.6377852743411283
9.808062678,0.7086217884397087,2.670716355288532,-1.941072033229477
9.812838772,0.8157770232133856,2.190589496253721,-2.2419689705836676
9.817614865,0.9157300970104068,1.7044214878358388,-2.5387366921231647
9.822391011,1.0076415837735833,1.2154263864455428,-2.8296370860920526
9.827167105,1.0906909698682918,0.7268292188648894,-3.1129471757972214
9.831929918,1.16408465559776,0.24183817851922104,-3.386973144945494
9.836719345,1.2270640242581385,-0.23638323268742792,-3.650064387345809
9.841495438,1.2789134859708826,-0.7047438194807082,-3.900627424067929
9.846258251,1.3189683993497898,-1.1602517596595303,-4.1371395240294735
9.851047678,1.3466227710736494,-1.6000408110640871,-4.358161858429962
9.855823772,1.3613366318252544,-2.0213953463292764,-4.5623520157075665
9.860586584,1.3626429868734575,-2.4217739044479036,-4.748475702039463
9.865376011,1.3501542408043417,-2.7988309541012217,-4.915417453228314
9.870152105,1.3235679985994337,-3.1504365743836953,-5.062190187777582
9.874914918,1.2826721497145293,-3.4746937747048867,-5.18794343915755
9.879704345,1.2273491488001684,-3.769953198425871,-5.291970119206243
9.884480438,1.1575794174997862,-4.034824985965497,-5.3737116857661045
9.889243251,1.0734438076798545,-4.268187615171335,-5.432761616741797
9.894032678,0.9751250876794407,-4.469193591996351,-5.468867129176497
9.898808824,0.8629084375627498,-4.637271933029955,-5.481929123683452
9.903571584,0.7371809627087027,-4.77212745905082,-5.472000378513812
9.908361011,0.5984302535175431,-4.873736997414135,-5.4392820600431
9.913137105,0.44724203149289177,-4.9423426618901525,-5.384118654353104
9.917899918,0.2842969300731841,-4.978442435563312,-5.306991456152707
9.922689345,0.11036646444489061,-4.982778323886077,-5.208510776314839
9.92746549,-0.07369175073282204,-4.956322372272531,-5.089407048288197
9.932228251,-0.2669394730496159,-4.900260857976711,-4.950521026914184
9.937017678,-0.46836392828855977,-4.815976971380918,-4.792793280763955
9.941793824,-0.6768844640638892,-4.70503229860318,-4.617253180996859
9.946556584,-0.891359694592305,-4.569147406574862,-4.425007586188666
9.951346063,-1.1105950711358656,-4.410181814487595,-4.217229414179527
9.956122157,-1.3333508146995385,-4.230113613026698,-3.9951462795006965
9.96088497,-1.5583501504480348,-4.031018966610461,-3.7600293590087466
9.965674397,-1.7842877868742386,-3.8150517055709776,-3.5131826294073174
9.97045049,-2.0098385865895576,-3.584423186376327,-3.255932598678528
9.975213303,-2.233666379008529,-3.3413825698549213,-2.9896186295755816
9.98000273,-2.454432867458125,-3.0881976408310967,-2.7155839281674337
9.984778824,-2.6708065839860167,-2.8271362682428247,-2.435167245266764
9.989541636,-2.8814718444254632,-2.56044858322849,-2.149695314731672
9.994331063,-3.085137654410352,-2.2903499344031086,-1.8604760311276862
9.999107157,-3.280546514404267,-2.019004665168892,-1.5687923507455042
10.00386997,-3.4664830688270882,-1.748510747938246,-1.2758968850047836
10.0086594,-3.641782541564511,-1.4808853049638648,-0.9830071443231352
10.01343549,-3.8053388981929857,-1.2180510451706672,-0.6913013839884853
10.0181983,-3.9561126747099413,-0.961823650616188,-0.40191500153218884
10.02298773,-4.09313841352777,-0.7139001540013957,-0.11593743713129985
10.02776382,-4.21553164947553,-0.47584835837040923,0.16559046637662878
10.03252664,-4.3224953908194905,-0.24909735963150936,0.4416786807975673
10.03731606,-4.413326042449604,-0.03492923962675011,0.7113898180191287
10.04209216,-4.4874187204972085,0.16552799943833474,0.9738405900577884
10.04685497,-4.544271910089184,0.35130618999799645,1.2282029281060927
10.0516444,-4.583491420897991,0.5216013804486744,1.47370478465933
10.05642049,-4.604793598595383,0.6757767895129035,1.7096306433026158
10.0611833,-4.608007754207126,0.8133642930101677,1.9353217612260114
10.06597273,-4.593077777788198,0.9340644169713271,2.150176169656684
10.07074888,-4.560062908055704,1.0377448268380702,2.3536484572619023
10.07551164,-4.509137635922011,1.124437319038876,2.5452493614867255
10.08030106,-4.4405907273653416,1.1943333381917556,2.7245451929369873
10.08507721,-4.354823359547347,1.2477780602777664,2.8911571182327394
10.08983997,-4.252346373087427,1.2852630990709806,3.0447603269632553
10.0946294,-4.1337766524449515,1.3074179095778524,3.1850831081504225
10.09940554,-3.9998326550871304,1.3149999779061479,3.3119058607540373
10.10418164,-3.851329118351293,1.308883901568949,3.4250600611740887
10.10895773,-3.6891709805906165,1.2900494775192306,3.524427208495635
10.11373388,-3.5143465603245043,1.2595689270594548,3.6099377655123335
10.11850997,-3.327920043729161,1.2185933970873102,3.6815701104907514
10.12328612,-3.131023336956615,1.1683388858600092,3.739349511319038
10.12806221,-2.924847345530671,1.1100717485126024,3.783347130217862
10.13282502,-2.710632748481537,1.0450939428460082,3.8136790636607993
10.13761445,-2.4896603399431774,0.9747281792935534,3.830505418643826
10.14239054,-2.2632410156176412,0.9003031404049961,3.8340294230669993
10.14715336,-2.0327054858018805,0.8231389346368394,3.824496564855284
10.15194278,-1.7993938006040417,0.7445329467059433,3.8021937516175717
10.15671888,-1.5646447765619635,0.6657462421933936,3.767448480107866
10.16148169,-1.3297854170593513,0.5879906773358597,3.7206280024033607
10.16627112,-1.096120421576307,0.5124168558334125,3.6621384733928117
10.17104721,-0.8649218806959654,0.44010306290568774,3.5924240617427015
10.17581002,-0.6374192546187178,0.37204529273398557,3.511966003962892
10.18059945,-0.4147897323711686,0.3091484690002068,3.4212815787045274
10.18537554,-0.19814906671299057,0.2522189398476904,3.320922976344812
10.19013836,0.011457024025131327,0.201958308819756,3.2114760376347693
10.19492778,0.21306080102894107,0.15895864287764658,3.093558834959258
10.19970388,0.4057797169679281,0.1236990781452708,2.9678200706443265
10.20446669,0.5888228217176006,0.09654382412082578,2.8349372686976615
10.20925612,0.7614962964198302,0.07774154810302224,2.695614739323946
10.21403221,0.9232080589894371,0.06742610373910389,2.5505812994586785
10.21879502,1.0734713935244304,0.06561855109452135,2.4005877373055564
10.22358445,1.2119075662030332,0.07223040063372006,2.246404014273266
10.22836054,1.3382474010569703,0.08706800012946257,2.088816203579961
10.23312336,1.4523318003724148,0.10983797188879303,1.9286231709085637
10.23791278,1.5541112062473115,0.14015359785770856,1.766633008612665
10.24268893,1.6436440118699343,0.17754204216245847,1.6036592408193944
10.24745169,1.7210939432003325,0.22145229444874812,1.440516822088779
10.25224112,1.7867264437451533,0.27126371295614327,1.278017956885486
10.25701726,1.8409041068311875,0.326295043570253,1.1169677709270494
10.26178007,1.8840812110083547,0.38581379008413974,0.9581598684934556
10.26656945,1.916797424721907,0.4490458115178094,0.8023718120292515
10.2713456,1.9396707559339934,0.5151850245069948,0.6503605618488131
10.27610841,1.9533898307043307,0.5834030923586068,0.5028579144978514
10.28089783,1.9587055916595495,0.6528589872358709,0.3605659784120003
10.28567393,1.956422512646925,0.7227083179322394,0.22415272508799153
10.29043674,1.9473894296016083,0.7921123226735322,0.09424765322507106
10.29522617,1.9324900897593393,0.8602464342203892,-0.02856239761595361
10.30000226,1.9126335219021642,0.9263083331300387,-0.14373724820859
10.30476507,1.8887443294713513,0.9895254143186896,-0.25078716091779285
10.3095545,1.8617530062871028,1.0491616020013375,-0.34927636690725977
10.3143306,1.8325863714562964,1.1045234586173749,-0.43882630566848757
10.31909341,1.8021582159927478,1.154965544387851,-0.519118543492604
10.32388283,1.7713602488641007,1.1998949955680152,-0.5898973375040176
10.32865893,1.74105342476568,1.2387753011013443,-0.6509718116159094
10.33343507,1.712059730100574,1.2711292690655913,-0.7022177102710869
10.33821117,1.6851544976562953,1.2965411858150506,-0.743578695187682
10.34298726,1.6610593145022687,1.3146581818244407,-0.7750671497623854
10.34775007,1.6404355816862906,1.3251908286668541,-0.7967644556899075
10.3525395,1.6238787781201005,1.3279130010495537,-0.8088207072699493
10.35731565,1.6119134742032166,1.322661046153482,-0.8114538313809911
10.36207846,1.604989132904464,1.3093323094970784,-0.8049480857689685
