Time (s),Acceleration x (m/s^2),Acceleration y (m/s^2),Acceleration z (m/s^2)
10.00431953,6.061019897,-5.797809124,-1.433300734
10.00907458,6.099305153,-5.525027275,-1.59840548
10.01382963,6.515655994,-5.25942421,-1.536192179
10.01858468,7.27178812,-5.06560564,-1.31126678
10.02333974,8.185846329,-4.902893543,-0.9595218897
10.02809479,9.004191399,-4.871787071,-0.6939185858
10.03284984,9.480362892,-4.905286312,-0.6699903607
10.03760489,9.46361351,-5.087141037,-1.026520967
10.04235995,9.044869423,-5.374279499,-1.641476393
10.047115,8.487341881,-5.697310925,-2.081755638
10.05187005,7.99202776,-6.037091732,-2.136790514
10.0566251,7.623532772,-6.350551128,-1.852044702
10.06138015,7.384250641,-6.668796539,-1.483550072
10.06613521,7.300501823,-6.984649181,-1.196411371
10.07089026,7.168896675,-7.274180889,-0.9810572863
10.07564531,6.965506554,-7.568498135,-0.866201818
10.08040036,6.697510719,-7.750352383,-0.7417750359
10.08515541,6.34815836,-7.901100159,-0.6675975323
10.08991047,6.037091732,-8.039883614,-0.6747759581
10.09466552,5.752345562,-8.15473938,-0.7202396393
10.09942057,5.434100151,-8.33180809,-0.5814558864
10.10417567,5.178068161,-8.446663857,-0.2560320199
10.10893067,5.067998409,-8.472985268,0.1363908947
10.11368573,5.352744102,-8.300702095,0.3469592929
10.11844083,5.711667538,-8.023134232,0.3780659735
10.12319588,6.130411625,-7.704888821,0.2512463629
10.12795094,6.628118515,-7.317251682,0.0239282269
10.13270599,6.917650223,-6.814758778,-0.1124626622
10.13746104,6.86022234,-6.319444656,-0.1986042857
10.14221609,6.56829834,-5.828916073,-0.2009970993
10.14697114,6.096911907,-5.391029358,-0.1507478207
10.1517262,5.40060091,-4.986642361,-0.2321037948
10.15648125,4.677968502,-4.639683247,-0.4163511395
10.1612363,3.8668015,-4.26879549,-0.7154539824
10.16599135,3.115455151,-3.98165679,-0.9954141974
10.1707464,2.49332118,-3.689732552,-1.21555388
10.17550146,2.148754835,-3.421736479,-1.272981644
10.18025651,2.093719721,-3.158525944,-1.172483087
10.18501156,2.325823545,-2.907279491,-0.9164510965
10.18976661,2.885744095,-2.71824646,-0.5838487148
10.19452166,3.560520172,-2.632104874,-0.3038884699
10.19927672,4.256831646,-2.648854733,-0.2225325108
10.20403177,4.934000492,-2.857030153,-0.3397808075
10.20878682,5.553741455,-3.251846075,-0.5192425251
10.21354187,6.161518097,-3.873979807,-0.6628118753
10.21829692,6.68076086,-4.66839695,-0.8422735929
10.22305198,7.054041386,-5.613562107,-1.016949654
10.22780703,7.379465103,-6.659225464,-1.129412293
10.23256208,7.76949501,-7.788637638,-1.155733347
10.23731713,8.300702095,-9.008976936,-1.012163997
10.24207219,8.932407379,-10.3848505,-0.70348984
10.24682724,9.619147301,-11.88514996,-0.3230310678
10.25158234,10.29392338,-13.40937805,0.09092725813
10.25633739,11.04287624,-14.94317722,0.4378865361
10.26109245,11.72243786,-16.53679657,0.6005984545
10.2658475,12.31107235,-17.92702675,0.6532405615
10.27060255,12.64846039,-19.32204247,0.4881358147
10.2753576,12.86381435,-20.46341896,0.2249253243
10.28011265,12.91645622,-21.14058876,-0.08614161611
10.28486771,12.63410378,-21.24347878,-0.327816695
10.28962276,11.61236858,-20.27199364,-0.5886343718
10.29437781,10.24606609,-18.13281059,-0.8614161611
10.29913286,9.339186668,-15.81895065,-1.11984098
10.30388791,8.970691681,-13.94058514,-1.323230863
10.30864297,8.908478737,-12.36850071,-1.469193101
10.31339802,9.008976936,-11.07398319,-1.607976794
10.31815307,9.145368576,-9.978070259,-1.670190215
10.32290812,9.408578873,-9.097511292,-1.363908887
10.32766317,9.671789169,-8.353343964,-0.9738788009
10.33241823,9.832108498,-7.72163868,-0.6484549642
10.33717333,9.858428955,-7.109076023,-0.5623133183
10.34192838,9.659825325,-6.558726788,-0.5886343718
10.34668344,9.217152596,-6.080162525,-0.4642075896
10.35143849,8.633303642,-5.654240131,-0.07178468257
10.35619354,7.877171993,-5.309673309,0.6077769399
10.36094859,7.099504948,-5.032105923,1.21555388
10.36570364,6.405586243,-4.783252239,1.433300734
10.3704587,5.694917679,-4.639683247,1.227517962
10.37521375,5.010570526,-4.558327198,0.8063812256
10.3799688,4.335794449,-4.634897232,0.1698904037
10.38472385,3.718446493,-4.840680122,-0.5192425251
10.3894789,3.304488182,-5.218746185,-1.153340459
10.39423396,3.158525944,-5.816951752,-1.660618901
10.39898901,3.347558975,-6.671189308,-2.132004976
10.40374406,3.656233072,-7.728816986,-2.768495798
10.40849911,4.074976921,-8.863015175,-3.455235958
10.41325422,4.685146809,-10.04985523,-4.029513359
10.41800927,5.560919762,-11.301301,-4.007977962
10.42276432,6.599404812,-12.62931824,-3.158525944
10.42751937,7.618747234,-13.94776344,-1.677368641
10.43227442,8.590232849,-15.18724537,-0.0143569354
10.43702948,9.406186104,-16.25922966,1.270588875
10.44178453,10.05942631,-16.99621964,1.988435626
10.44653958,10.50927734,-17.33360672,1.916650891
10.45129463,10.50449181,-17.06321907,1.277767301
10.45604968,10.08574772,-16.24008751,0.5383850932
10.46080474,9.389435768,-14.99581909,0.07178468257
10.46555979,8.123632431,-13.60798264,-0.1100698411
10.47031489,6.400800705,-12.22014523,-0.2009970993
10.47506995,4.670789719,-11.01177025,-0.2225325108
10.479825,3.280559778,-10.0019989,-0.3589234054
10.48458005,2.165504456,-9.1860466,-0.5647061467
10.4893351,1.277767301,-8.472985268,-0.813559711
10.49409015,0.5838487148,-7.903493404,-1.10309124
10.49884521,0.05503492057,-7.410571575,-1.368694544
10.50360026,-0.4522434771,-7.006184578,-1.567298889
10.50835531,-0.8159525394,-6.671189308,-1.622333765
10.51311036,-0.9355936646,-6.345765591,-1.576870084
10.51786541,-0.6771687865,-6.125626087,-1.42372942
10.52262047,-0.06460621208,-5.9485569,-1.256231904
10.52737552,0.7417750359,-5.881557941,-1.036092162
10.53213057,1.574477315,-5.88395071,-0.7920243144
10.53688567,2.383251429,-5.857629776,-0.4977070987
10.54164073,3.105883837,-5.869594097,-0.1818545163
10.54639578,3.828516245,-5.869594097,0.1148554832
10.55115083,4.429114819,-5.8983078,0.457029134
10.55590588,5.056034088,-5.936593056,0.7776673436
10.56066094,5.78584528,-6.044270039,0.9738788009
10.56541599,6.546762943,-6.23330307,1.009771109
10.57017104,7.121040344,-6.506084919,1.021735311
10.57492609,7.523034573,-6.788437843,0.9475577474
10.5796812,7.867600918,-6.991827965,0.7465606928
10.5844362,8.121239662,-7.161718369,0.3349951804
10.5891913,8.417949677,-7.278966427,-0.2129612118
10.59394635,8.906085968,-7.310073376,-0.8566305041
10.5987014,9.607182503,-7.398607731,-1.47158587
10.60345646,10.61456108,-7.444071293,-1.856830359
10.60821151,11.96889877,-7.561319351,-1.878365755
10.61296656,13.34237862,-7.724031448,-1.579262972
10.61772161,14.73021603,-7.965706348,-1.031306505
10.62247666,15.87877083,-8.31027317,-0.3206382394
10.62723172,16.42194176,-8.688339233,0.342173636
10.63198682,16.30469322,-9.097511292,0.8422735929
10.63674187,15.62513161,-9.470791817,0.8781659007
10.64149692,14.37607861,-9.805787086,0.2536391914
10.64625198,12.67956734,-10.04028416,-0.7250252366
10.65100703,10.74616623,-10.20778179,-1.627119422
10.65576208,8.896514893,-10.3226366,-2.344966173
10.66051713,7.487142086,-10.5475626,-2.821137905
10.66527219,6.752545357,-10.78684425,-2.90967226
10.67002724,6.649653912,-10.95194912,-2.63689065
10.67478229,6.884150982,-11.00937653,-2.0769701
10.67953734,7.073183537,-10.88734341,-1.531406522
10.68429244,7.075576782,-10.63370419,-1.112662554
10.6890475,6.975078106,-10.26999474,-0.756131947
10.69380255,6.927221775,-9.899106979,-0.4857429862
10.6985576,7.075576782,-9.535398483,-0.2991028428
10.70331265,7.458428383,-9.181260109,-0.2392822653
10.70806771,7.92742157,-8.863015175,-0.313459754
10.71282276,8.405985832,-8.662017822,-0.5216353536
10.71757781,8.805587769,-8.508877754,-0.7776673436
10.72233291,8.961120605,-8.477770805,-0.9595218897
10.72708797,8.930013657,-8.528019905,-1.026520967
10.73184302,8.66680336,-8.556734085,-1.048056364
10.73659807,8.090133667,-8.568697929,-1.112662554
10.74135312,7.341179848,-8.58784008,-1.16769743
10.74610817,6.661618233,-8.554341316,-1.289731383
10.75086323,6.240481377,-8.549555779,-1.351944804
10.75561828,5.943771362,-8.336593628,-1.354337573
10.76037333,5.783452511,-8.070990562,-1.244267821
10.76512838,5.793023586,-7.740781307,-1.076770186
10.76988349,5.749952793,-7.345965385,-0.9595218897
10.77463854,5.704489231,-7.006184578,-0.8470591903
10.77939359,5.309673309,-6.427121639,-0.9044869542
10.78414864,4.878965378,-5.938985825,-1.074377418
10.7889037,4.517649174,-5.508277893,-1.225125194
10.79365875,4.161118507,-5.118247509,-1.409372568
10.7984138,3.850051641,-4.835894585,-1.605584025
10.80316885,3.625126362,-4.508078098,-1.552941918
10.80792396,3.132204771,-4.053441525,-1.39022994
10.81267901,2.739781857,-3.69212532,-0.9451649189
10.81743406,2.550748825,-3.249453068,-0.1028913707
10.82218911,2.371287346,-2.768495798,0.7992027402
10.82694416,2.39760828,-2.330609322,1.521835208
10.83169922,2.615355253,-2.005185366,1.921436548
10.83645427,2.407179594,-1.363908887,1.974078655
10.84120932,1.852044702,-0.9714859724,1.753939033
10.84596437,1.100698471,-0.7369893789,1.55054903
10.85071948,0.2201396823,-0.6915257573,1.607976794
10.85547453,-0.2536391914,-0.7704889178,1.677368641
10.86022958,-0.404387027,-0.7944171429,1.545763373
10.86498463,0.0,-0.9451649189,1.418943882
10.86973968,0.3038884699,-0.8446664214,1.299302697
10.87449474,1.03848505,-0.9714859724,0.9906286001
10.87924979,1.672582984,-0.9738788009,0.5503492355
10.88400484,2.234896421,-0.9068797827,0.1076770201
10.88875994,2.825923443,-0.9308080077,-0.2679961324
10.893515,3.383451223,-1.11984098,-0.8015955687
10.89827005,4.323830605,-1.529013634,-1.308874011
10.9030251,5.11585474,-2.012363911,-1.517049551
10.90778015,5.395814896,-2.371287346,-1.435693622
10.91253521,5.357530117,-2.598605394,-1.304088354
10.91729026,5.06560564,-2.644068956,-1.387837172
10.92204536,4.800002098,-2.536391973,-1.713261008
10.92680041,4.84546566,-2.356930256,-1.866401672
10.93155547,4.907679081,-2.026720762,-1.864008784
10.93631052,5.01774931,-1.749153376,-1.59840548
10.94106557,5.199603558,-1.512263894,-1.21555388
10.94582062,5.458028316,-1.344766378,-0.8566305041
10.95057567,5.716453075,-1.277767301,-0.6771687865
10.95533078,5.953342915,-1.268195987,-0.8111668825
10.96008583,6.101697922,-1.292124271,-1.03848505
10.96484088,6.111268997,-1.457229018,-1.170090318
10.96959594,5.996413708,-1.607976794,-1.229910851
10.97435099,5.919843197,-1.816152334,-1.280160069
10.97910604,5.915057659,-2.079362869,-1.227517962
10.98386109,6.089733601,-2.373680115,-1.031306505
10.98861614,6.412764549,-2.761317253,-0.8279166222
10.9933712,6.915257454,-3.21356082,-0.679561615
10.9981263,7.472784996,-3.713660717,-0.5766702294
11.00288135,7.980063438,-4.120440483,-0.4857429862
11.0076364,8.449056625,-4.500899315,-0.5359922647
11.01239146,8.853444099,-4.905286312,-0.708275497
11.01714651,9.195617676,-5.333601475,-0.9403793216
11.02190156,9.406186104,-5.797809124,-1.155733347
11.02665661,9.511469841,-6.31226635,-1.354337573
11.03141172,9.547362328,-6.836294174,-1.452443361
11.03616677,9.480362892,-7.357929707,-1.572084427
11.04092182,9.205188751,-7.843672752,-1.612762451
11.04567687,8.896514893,-8.228917122,-1.660618901
11.05043192,8.640482903,-8.537590981,-1.634297848
11.05518698,8.384450912,-8.688339233,-1.631905079
11.05994208,8.00638485,-8.798408508,-1.521835208
11.06469713,7.621140003,-8.894122124,-1.418943882
11.06945219,7.295716286,-8.97308445,-1.292124271
11.07420724,6.977470875,-8.961120605,-1.057627559
11.07896229,6.702296257,-8.836693764,-0.7680960894
11.08371734,6.405586243,-8.664410591,-0.5647061467
11.08847239,6.065805435,-8.429914474,-0.5168496966
11.0932275,5.730810165,-8.070990562,-0.4881358147
11.09798255,5.383851051,-7.659425259,-0.4259224236
11.1027376,5.03689146,-7.164111137,-0.3230310678
11.10749265,4.689932346,-6.570691109,-0.1316052526
11.11224771,4.378865242,-5.934200287,0.0239282269
11.11700276,4.084548473,-5.257031441,0.04785645381
11.12175781,3.751945972,-4.615755081,-0.02871387079
11.12651291,3.381058455,-4.039084435,-0.2105683982
11.13126797,3.00538516,-3.527020693,-0.471386075
11.13602302,2.586641312,-3.120240688,-0.6460621357
11.14077807,2.335394859,-2.78285265,-0.6484549642
11.14553312,2.249253273,-2.495713949,-0.650847733
11.15028817,2.400001049,-2.242074728,-0.5790630579
11.15504328,2.82831645,-1.978864312,-0.4977070987
11.15979833,3.682554007,-1.811366796,-0.4929214716
11.16455338,4.752145767,-1.785045743,-0.5048855543
11.16930844,5.821737289,-1.947757602,-0.6819544435
11.17406349,6.783652306,-2.416750908,-0.9619147182
11.17881854,7.908278942,-3.110669374,-1.296909928
11.18357359,9.15733242,-3.8213377,-1.627119422
11.1883287,10.24606609,-4.642076015,-1.864008784
11.19308375,10.82752228,-5.611168861,-2.048256159
11.1978388,10.92084217,-6.699903488,-2.0769701
11.20259385,10.60259724,-7.944170952,-2.086541414
11.2073489,10.10010433,-9.38465023,-2.000399828
11.21210401,9.631111145,-10.8107729,-1.739582062
11.21685906,9.284152031,-12.30389404,-1.239482164
11.22161411,9.142974854,-13.79940796,-0.4833501875
11.22636916,9.150154114,-15.31167221,0.3589234054
11.23112422,9.198010445,-16.75215149,1.045663476
11.23587927,9.066405296,-18.22852325,1.452443361
11.24063437,8.831908226,-19.5015049,1.588834286
11.24538942,8.537590981,-20.20738792,1.466800332
11.25014448,7.810173035,-21.12383842,1.289731383
11.25489953,7.417750359,-21.50668907,1.093519926
11.25965458,7.010970116,-21.33919144,0.8518448472
11.26440963,6.719046116,-20.46581268,0.457029134
11.26916469,6.60419035,-19.01576233,-0.1028913707
11.27391979,6.668796539,-17.09911156,-0.679561615
11.27867484,6.819544315,-15.21356678,-1.000199914
11.28342989,7.185646534,-13.56251907,-1.019342422
11.28818495,7.680960655,-12.12682533,-0.8327022791
11.29294,8.283951759,-10.9304142,-0.5910272002
11.2976951,8.941978455,-9.968499184,-0.2392822653
11.30245015,9.533005714,-9.159725189,-0.06460621208
11.30720521,10.22692394,-8.520841599,-0.2656033039
11.31196026,10.96391296,-8.018348694,-0.5216353536
11.31671531,11.63629627,-7.649854183,-0.5551348329
11.32147036,12.17707443,-7.446464062,-0.35174492
11.32622547,12.43071365,-7.281359196,-0.08135596663
11.33098052,12.3996067,-7.274180889,0.05742774159
11.33573557,12.03589821,-7.33639431,-0.009571290575
11.34049062,11.43529987,-7.420143127,-0.1746760458
11.34524567,10.68156052,-7.484749317,-0.2632105052
11.35000073,9.884750366,-7.489534855,-0.2799602449
11.35475583,9.111868858,-7.405786037,-0.2249253243
11.35951088,8.391629219,-7.286144733,-0.2081755698
11.36426594,7.709674358,-7.113861561,-0.2895315289
11.36902099,7.140182972,-6.967899323,-0.5982056856
11.37377604,6.704689026,-6.845865726,-1.222732425
11.37853114,6.331408501,-6.771687984,-1.919043779
11.3832862,6.049055576,-6.683153629,-2.443071842
11.38804125,5.867201328,-6.637690067,-2.715853691
11.3927963,5.649454117,-6.575476646,-2.629712105
11.39755135,5.2737813,-6.527620316,-2.165504456
11.4023064,4.788038254,-6.465406895,-1.50269258
11.40706151,4.225724697,-6.446264267,-0.8829515576
11.41181656,3.699303865,-6.446264267,-0.4115654826
11.41657161,3.323630571,-6.42472887,-0.2033899277
11.42132666,3.096312523,-6.463014126,-0.2943171859
11.42608172,3.031706333,-6.513263226,-0.6053841114
11.43083682,3.000599623,-6.649653912,-0.8949156404
11.43559187,2.916850805,-6.886543751,-1.036092162
11.44034692,2.902493954,-7.135396957,-0.9738788009
11.44510198,2.981456995,-7.460821152,-0.7824530005
11.44985703,3.115455151,-7.855636597,-0.4666004181
11.45461208,3.251846075,-8.260024071,-0.08614161611
11.45936719,3.431307554,-8.664410591,0.2560320199
11.46412224,3.608376503,-9.071190834,0.5862415433
11.46887729,3.763910055,-9.468399048,0.8566305041
11.47363234,3.921836376,-9.793823242,0.9523434043
11.47838745,4.048655987,-10.11446095,0.8997012973
11.4831425,4.161118507,-10.4350996,0.6915257573
11.48789755,4.34775877,-10.78684425,0.3541377485
11.4926526,4.656432629,-11.09551907,-0.1196411327
11.49740765,4.814359188,-11.40180016,-0.5024927258
11.50216271,4.967499733,-11.71286678,-0.7657032609
11.50691781,5.127819061,-11.87318611,-0.8973084688
11.51167286,5.254638672,-11.95454216,-0.7776673436
11.51642791,5.367101192,-12.02154064,-0.4785645306
11.52118297,5.623133183,-12.00718403,-0.1890329868
11.52593802,6.113661766,-11.84207916,0.004785645287
11.53069312,6.74536705,-11.6841526,0.03349951655
11.53544817,7.281359196,-11.55254745,0.05503492057
11.54020323,7.757531166,-11.51904774,0.04067798331
11.54495828,8.193024635,-11.37547874,0.04546362907
11.54971333,8.571090698,-11.38983536,0.05024927482
11.55446844,8.874979019,-11.29172993,0.02153540403
11.55922349,9.279366493,-11.10509014,-0.01674975827
11.56397854,9.834501266,-10.79880905,-0.1316052526
11.56873359,10.30588722,-10.55713367,-0.3158525825
11.57348864,10.87298584,-10.21017456,-0.4426721931
11.57824375,11.36830044,-9.863214493,-0.404387027
11.5829988,11.78704453,-9.554540634,-0.2225325108
11.58775385,11.93061352,-9.262616158,0.1411765367
11.5925089,11.60997581,-8.987442017,0.5527420044
11.59726396,10.8179512,-8.683553696,0.7824530005
11.60201906,9.501898766,-8.341380119,0.7106683254
11.60677411,8.073383331,-7.996813297,0.337387979
11.61152916,6.790830612,-7.65703249,-0.1842473447
11.61628422,5.788238049,-7.374679565,-0.7944171429
11.62103927,5.278566837,-7.106683254,-1.39022994
11.62579437,5.362315655,-6.848258495,-1.835294962
11.63054942,5.788238049,-6.61854744,-2.021935225
11.63530448,6.285944939,-6.427121639,-1.928615093
11.64005953,6.742974281,-6.266802311,-1.572084427
11.64481458,7.032505512,-6.070590973,-1.127019525
11.64956969,7.255038261,-5.96291399,-0.6604190469
11.65432474,7.439285755,-5.936593056,-0.2273181528
11.65907979,7.515855789,-5.91266489,0.09092725813
11.66383484,7.456035137,-5.989234924,0.2129612118
11.66858989,7.384250641,-6.142375946,0.1627119333
11.673345,7.367500782,-6.336194515,0.007178467698
11.67810005,7.25743103,-6.455835342,-0.1938186288
11.6828551,7.042077065,-6.537191391,-0.4235295951
11.68761015,6.967899323,-6.704689026,-0.6484549642
11.69236526,6.900900364,-6.848258495,-0.7489534616
11.69712031,7.070790768,-6.982256413,-0.8350951076
11.70187536,7.432106972,-7.245467186,-0.9332008362
11.70663041,7.793423176,-7.281359196,-1.115055323
11.71138547,8.307880402,-7.367500782,-1.325623751
11.71614057,8.920442581,-7.57806921,-1.600798368
11.72089562,9.57129097,-7.843672752,-1.919043779
11.72565067,10.20060253,-8.126026154,-2.108076811
11.73040573,10.38963604,-8.193024635,-2.038684845
11.73516083,10.30110168,-8.33180809,-1.768295884
11.73991588,9.868000984,-8.403593063,-1.493121386
11.74467094,9.126225471,-8.41077137,-1.256231904
11.74942599,8.274380684,-8.396414757,-1.079162955
11.75418104,7.52782011,-8.346165657,-0.9738788009
11.75893614,6.853044033,-8.276773453,-0.8805587292
11.7636912,6.415157318,-8.116454124,-0.8949156404
11.76844625,6.23330307,-7.865208149,-0.9667003751
11.7732013,6.190232277,-7.487142086,-1.060020447
11.77795635,6.307480335,-6.943971157,-1.105484009
11.78271146,6.336194515,-6.252445698,-1.196411371
11.78746651,6.228517532,-5.759523869,-1.165304661
11.79222156,5.793023586,-5.19481802,-0.9547362328
11.79697661,4.919643402,-4.768895626,-0.732203722
11.80173172,4.094119549,-4.596612453,-0.4211367965
11.80648677,3.361915827,-4.465006828,0.1148554832
11.81124182,2.82831645,-4.386044025,0.8159525394
11.81599687,2.376072884,-4.223331928,1.59840548
11.82075192,1.911865234,-4.036691666,2.36650157
11.82550703,1.373480201,-3.783052683,2.921636343
11.83026208,0.8685946465,-3.50069952,2.98863554
11.83501713,0.433100909,-3.141776085,2.660818815
11.83977219,0.01196411345,-2.63689065,2.007578135
11.84452729,-0.2009970993,-2.088934183,1.241874933
11.84928234,-0.313459754,-1.476371527,0.4905286431
11.85403739,-0.1698904037,-0.8781659007,-0.1100698411
11.85879244,0.1698904037,-0.3565305769,-0.3996013701
11.86354755,0.7226324677,0.04785645381,-0.4139583111
11.8683026,1.280160069,0.3493520916,-0.4809573591
11.87305765,1.945364833,0.4833501875,-0.7896314859
11.87781271,2.349751949,0.6699903607,-1.074377418
11.88256776,2.27078867,1.004985452,-1.179661512
11.88732286,2.258824587,1.016949654,-1.028913736
11.89207791,2.246860504,0.9164510965,-0.9020941257
