Time (s),Acceleration x (m/s^2),Acceleration y (m/s^2),Acceleration z (m/s^2)
9.000237564,3.37036012002539e+106,1.7450081753091089e+106,-8.188857806173608e+106
9.004992043,3.336546718430468e+106,1.7280415894633638e+106,-8.114417518354015e+106
9.009746523,3.3030747754887904e+106,1.7112476866084366e+106,-8.040648222083359e+106
9.01450095,3.2699409059971173e+106,1.6946246358771695e+106,-7.967543598434506e+106
9.019255429,3.2371417568045755e+106,1.6781706252984686e+106,-7.895097395015549e+106
9.024009908,3.2046740065076083e+106,1.6618838616148803e+106,-7.823303425240398e+106
9.028764387,3.17253436514896e+106,1.6457625701021255e+106,-7.752155567606413e+106
9.033518814,3.1407195739206934e+106,1.6298049943906154e+106,-7.681647764978801e+106
9.038273293,3.109226404871236e+106,1.614009396288957e+106,-7.611774023881545e+106
9.043027773,3.0780516606164585e+106,1.5983740556094565e+106,-7.542528413794614e+106
9.047782252,3.0471921740547627e+106,1.5828972699956157e+106,-7.473905066457297e+106
9.052536679,3.0166448080861562e+106,1.5675773547516245e+106,-7.405898175177455e+106
9.057291158,2.986406455335304e+106,1.5524126426738411e+106,-7.338501994146518e+106
9.062045637,2.9564740378785522e+106,1.5374014838842598e+106,-7.271710837760052e+106
9.066800116,2.926844506974922e+106,1.5225422456659596e+106,-7.205519079943796e+106
9.071554543,2.897514842801041e+106,1.5078333123005076e+106,-7.139921153485161e+106
9.076309023,2.8684820541899723e+106,1.4932730849072879e+106,-7.074911549370202e+106
9.081063502,2.8397431783738925e+106,1.4788599812846986e+106,-7.010484816126099e+106
9.085817981,2.8112952807305385e+106,1.4645924357531522e+106,-6.946635559169167e+106
9.090572408,2.7831354545333357e+106,1.4504688989998077e+106,-6.883358440158413e+106
9.095326887,2.755260820705103e+106,1.4364878379249729e+106,-6.82064817635467e+106
9.100081366,2.727668527575212e+106,1.422647735490124e+106,-6.7584995399853116e+106
9.104835846,2.700355750640099e+106,1.408947090567497e+106,-6.696907357614544e+106
9.109590273,2.6733196923270235e+106,1.395384417791204e+106,-6.635866509519271e+106
9.114344752,2.646557581760953e+106,1.3819582474098285e+106,-6.575371929070503e+106
9.119099231,2.6200666745344684e+106,1.3686671251404563e+106,-6.515418602120317e+106
9.12385371,2.593844252480586e+106,1.3555096120240955e+106,-6.4560015663943455e+106
9.128608137,2.567887623448395e+106,1.3424842842824584e+106,-6.397115910889706e+106
9.133362616,2.5421941210813955e+106,1.329589733176086e+106,-6.338756775278243e+106
9.138117096,2.5167611045984478e+106,1.3168245648638125e+106,-6.2809193493150205e+106
9.142871575,2.4915859585772146e+106,1.3041874002635712e+106,-6.223598872252026e+106
9.147626054,2.4666660927400126e+106,1.2916768749145438e+106,-6.1667906322570435e+106
9.152380481,2.4419989417420033e+106,1.2792916388406422e+106,-6.110489965837668e+106
9.15713496,2.4175819649616514e+106,1.2670303564153247e+106,-6.054692257270443e+106
9.161889439,2.3934126462933713e+106,1.2548917062277545e+106,-5.999392938035159e+106
9.166643918,2.369488493942272e+106,1.2428743809502994e+106,-5.944587486254367e+106
9.171398346,2.3458070402209038e+106,1.2309770872073713e+106,-5.890271426138174e+106
9.176152825,2.322365841347877e+106,1.2191985454456e+106,-5.836440327434384e+106
9.180907304,2.299162477248231e+106,1.2075374898053337e+106,-5.78308980488402e+106
9.185661783,2.27619455135544e+106,1.1959926679934568e+106,-5.730215517682277e+106
9.19041621,2.253459690414957e+106,1.1845628411575114e+106,-5.677813168944857e+106
9.195170689,2.2309555442892154e+106,1.1732467837611051e+106,-5.625878505179694e+106
9.199925168,2.20867978576398e+106,1.162043283460577e+106,-5.574407315764066e+106
9.204679648,2.186630110355971e+106,1.1509511409828925e+106,-5.523395432427207e+106
9.209434127,2.1648042361216507e+106,1.1399691700047257e+106,-5.47283872873845e+106
9.214188554,2.143199903467096e+106,1.1290961970326776e+106,-5.422733119600933e+106
9.218943033,2.1218148749588787e+106,1.1183310612845778e+106,-5.373074560750923e+106
9.223697512,2.1006469351358576e+106,1.1076726145718214e+106,-5.323859048262807e+106
9.228451991,2.0796938903217993e+106,1.0971197211827032e+106,-5.275082618059824e+106
9.233206418,2.058953568438729e+106,1.086671257766708e+106,-5.226741345430563e+106
9.237960898,2.0384238188209446e+106,1.0763261132197224e+106,-5.178831344551257e+106
9.242715377,2.0181025120296334e+106,1.066083188570124e+106,-5.131348768013854e+106
9.247469856,1.9979875396680528e+106,1.055941396865734e+106,-5.084289806359832e+106
9.252224283,1.978076814197248e+106,1.045899663061624e+106,-5.037650687619738e+106
9.256978762,1.9583682687522964e+106,1.0359569239087853e+106,-4.991427676858457e+106
9.261733241,1.938859856959057e+106,1.0261121278436566e+106,-4.945617075726189e+106
9.266487721,1.9195495527514197e+106,1.0163642348785081e+106,-4.900215222015069e+106
9.2712422,1.9004353501890488e+106,1.0067122164926772e+106,-4.855218489221393e+106
9.275996679,1.881515263275635e+106,9.971550555246575e+105,-4.810623286113371e+106
9.280751106,1.862787325777658e+106,9.876917460650438e+105,-4.7664260563042615e+106
9.285505585,1.844249591043664e+106,9.783212933503338e+105,-4.722623277830787e+106
9.290260064,1.82590013182407e+106,9.690427136575926e+105,-4.679211462736679e+106
9.295014543,1.8077370400915153e+106,9.598550341999817e+105,-4.636187156661202e+106
9.299768971,1.7897584268617964e+106,9.507572930231505e+105,-4.5935469384325285e+106
9.30452345,1.771962422015417e+106,9.41748538902477e+105,-4.5512874196658174e+106
9.309277929,1.7543471741197798e+106,9.328278312411394e+105,-4.509405244365861e+106
9.314032408,1.7369108502520596e+106,9.239942399690022e+105,-4.467897088534214e+106
9.318786887,1.7196516358227826e+106,9.152468454422965e+105,-4.4267596597807135e+106
9.323541314,1.7025677344001574e+106,9.065847383440758e+105,-4.385989696939371e+106
9.328295793,1.685657367535193e+106,8.980070195854329e+105,-4.345583969688679e+106
9.333050273,1.6689187745876414e+106,8.8951280020746e+105,-4.3055392781763495e+106
9.337804752,1.6523502125528057e+106,8.811012012839256e+105,-4.265852452648557e+106
9.342559231,1.6359499558892604e+106,8.727713538246363e+105,-4.226520353083741e+106
9.347313658,1.6197162963475154e+106,8.645223986794533e+105,-4.187539868831021e+106
9.352068137,1.6036475427996585e+106,8.563534864429314e+105,-4.148907918253299e+106
9.356822616,1.5877420210700069e+106,8.482637773595499e+105,-4.110621448375094e+106
9.361577096,1.571998073766809e+106,8.402524412295015e+105,-4.072677434535144e+106
9.366331575,1.5564140601150388e+106,8.323186573150056e+105,-4.035072880043795e+106
9.371086002,1.5409883557903192e+106,8.244616142471119e+105,-3.997804815845191e+106
9.375840481,1.5257193527540289e+106,8.166805099329614e+105,-3.9608703001843066e+106
9.38059496,1.5106054590896384e+106,8.089745514634749e+105,-3.92426641827884e+106
9.385349439,1.4956450988403128e+106,8.013429550214398e+105,-3.887990281995978e+106
9.390103918,1.4808367118477985e+106,7.937849457899749e+105,-3.8520390295340775e+106
9.394858346,1.4661787535926166e+106,7.862997578613586e+105,-3.816409825109295e+106
9.399612825,1.4516696950355838e+106,7.788866341462058e+105,-3.781099858647208e+106
9.404367304,1.4373080224606714e+106,7.715448262829762e+105,-3.746106345479451e+106
9.409121783,1.423092237319228e+106,7.642735945477973e+105,-3.711426526045396e+106
9.413876262,1.409020856075577e+106,7.570722077645942e+105,-3.677057665598898e+106
9.418630689,1.3950924100540025e+106,7.499399432155197e+105,-3.642997053920077e+106
9.423385168,1.3813054452871218e+106,7.428760865516815e+105,-3.6092420050321403e+106
9.428139648,1.3676585223656522e+106,7.35879931704163e+105,-3.5757898569232314e+106
9.432894127,1.3541502162895604e+106,7.289507807953451e+105,-3.5426379712732755e+106
9.437648606,1.3407791163205955e+106,7.220879440505375e+105,-3.5097837331857515e+106
9.442403033,1.3275438258361999e+106,7.152907397099271e+105,-3.4772245509243736e+106
9.447157512,1.3144429621847828e+106,7.085584939408472e+105,-3.4449578556546486e+106
9.451911991,1.3014751565423512e+106,7.018905407503796e+105,-3.412981101190309e+106
9.456666471,1.2886390537704985e+106,6.952862218982875e+105,-3.3812917637446146e+106
9.46142095,1.275933312275763e+106,6.88744886810289e+105,-3.3498873416864834e+106
9.466175377,1.263356603870363e+106,6.82265892491676e+105,-3.3187653553013645e+106
9.470929856,1.2509076136343189e+106,6.758486034412804e+105,-3.287923346556765e+106
9.475684335,1.2385850397789565e+106,6.694923915657919e+105,-3.2573588788723194e+106
9.480438814,1.2263875935117874e+106,6.631966360944364e+105,-3.22706953689429e+106
9.485193293,1.2143139989027596e+106,6.5696072349402e+105,-3.197052926274405e+106
9.489947773,1.2023629927518719e+106,6.507840473843519e+105,-3.167306673452931e+106
9.4947022,1.1905333244581333e+106,6.446660084540553e+105,-3.137828425445867e+106
9.499456679,1.1788237558898482e+106,6.386060143767758e+105,-3.10861584963611e+106
9.504211158,1.1672330612562146e+106,6.326034797277956e+105,-3.0796666335684716e+106
9.508965637,1.1557600269802277e+106,6.266578259010653e+105,-3.0509784847484273e+106
9.513720116,1.1444034515728856e+106,6.207684810266632e+105,-3.022549130444499e+106
9.518474543,1.1331621455087003e+106,6.149348798886985e+105,-2.9943763174941626e+106
9.523229023,1.122034931102527e+106,6.091564638436742e+105,-2.966457812113168e+106
9.527983502,1.1110206423877268e+106,6.034326807393296e+105,-2.9387913997081618e+106
9.532737981,1.10011812499568e+106,5.977629848339761e+105,-2.911374884692477e+106
9.53749246,1.0893262360366664e+106,5.921468367163464e+105,-2.8842060903049307e+106
9.542246939,1.0786438439821205e+106,5.865837032259736e+105,-2.857282858431499e+106
9.547001366,1.0680698285482766e+106,5.810730573741193e+105,-2.8306030494297444e+106
9.551755846,1.0576030805812143e+106,5.756143782652654e+105,-2.804164541955889e+106
9.556510325,1.0472425019433066e+106,5.702071510191893e+105,-2.7779652327944027e+106
9.561264804,1.0369870054010726e+106,5.648508666936365e+105,-2.7520030366899815e+106
9.566019283,1.0268355145144167e+106,5.595450222075999e+105,-2.7262758861818027e+106
9.57077371,1.0167869635272344e+106,5.542891202652173e+105,-2.7007817314399317e+106
9.575528189,1.0068402972593631e+106,5.490826692803005e+105,-2.6755185401037906e+106
9.580282668,9.969944709998632e+105,5.439251833015094e+105,-2.650484297122624e+106
9.585037148,9.87248450401616e+105,5.388161819381852e+105,-2.625677004597914e+106
9.589791627,9.77601211377229e+105,5.337551902868492e+105,-2.6010946816277203e+106
9.594546106,9.680517399962295e+105,5.287417388583746e+105,-2.5767353641529197e+106
9.599300533,9.585990323835335e+105,5.237753635058334e+105,-2.5525971048053175e+106
9.604055012,9.492420946191607e+105,5.188556053530219e+105,-2.52867797275763e+106
9.608809491,9.399799426391779e+105,5.139820107236728e+105,-2.5049760535753324e+106
9.613563971,9.308116021378527e+105,5.091541310713568e+105,-2.481489449070386e+106
9.61831845,9.217361084709978e+105,5.043715229100856e+105,-2.4582162771568408e+106
9.623072929,9.127525065604815e+105,4.996337477456208e+105,-2.435154671708297e+106
9.627827408,9.038598507998855e+105,4.949403720074967e+105,-2.4123027824172277e+106
9.632581835,8.950572049612915e+105,4.902909669817613e+105,-2.3896587746561454e+106
9.637336314,8.863436421031727e+105,4.856851087444461e+105,-2.3672208293405943e+106
9.642090793,8.777182444793742e+105,4.811223780957752e+105,-2.3449871427939323e+106
9.646845273,8.691801034491646e+105,4.766023604951288e+105,-2.3229559266138948e+106
9.651599752,8.607283193883403e+105,4.721246459967704e+105,-2.3011254075409032e+106
9.656354179,8.523620016013684e+105,4.676888291863436e+105,-2.2794938273280967e+106
9.661108658,8.440802682345537e+105,4.632945091181426e+105,-2.258059442613073e+106
9.665863137,8.358822461902113e+105,4.58941289253165e+105,-2.236820524791316e+106
9.670617616,8.277670710418286e+105,4.5462877739795466e+105,-2.2157753598912505e+106
9.675372096,8.197338869502032e+105,4.5035658564424275e+105,-2.1949222484508816e+106
9.680126575,8.117818465805427e+105,4.4612433030939103e+105,-2.174259505395936e+106
9.684881002,8.03910111020515e+105,4.4193163187764347e+105,-2.153785459919452e+106
9.689635481,7.961178496992407e+105,4.3777811494219164e+105,-2.133498455362765e+106
9.69438996,7.884042403072216e+105,4.3366340814805914e+105,-2.1133968490978197e+106
9.699144439,7.807684687171961e+105,4.295871441358105e+105,-2.09347901241075e+106
9.703898918,7.732097289059121e+105,4.2554895948608646e+105,-2.0737433303866973e+106
9.708653398,7.657272228768043e+105,4.215484946649688e+105,-2.0541882017958307e+106
9.713407825,7.583201605835647e+105,4.1758539397017485e+105,-2.0348120389805433e+106
9.718162304,7.509877598545985e+105,4.13659305478075e+105,-2.015613267743776e+106
9.722916783,7.437292463183607e+105,4.0976988099152816e+105,-1.9965903272384344e+106
9.727671262,7.365438533295628e+105,4.059167759885268e+105,-1.977741669857835e+106
9.732425741,7.294308218962421e+105,4.020996495716425e+105,-1.959065761127114e+106
9.737180221,7.223894006076842e+105,3.9831816441826416e+105,-1.940561079595511e+106
9.7419347,7.154188455631917e+105,3.9457198673161735e+105,-1.9222261167294468e+106
9.746689127,7.085184203016936e+105,3.908607861925559e+105,-1.9040593768063267e+106
9.751443606,7.016873957321839e+105,3.871842359121168e+105,-1.8860593768090187e+106
9.756198085,6.949250500649831e+105,3.8354201238482864e+105,-1.8682246463209704e+106
9.760952564,6.882306687438096e+105,3.7993379544276117e+105,-1.850553727421939e+106
9.765707043,6.816035443786558e+105,3.7635926821030486e+105,-1.8330451745843038e+106
9.770461523,6.750429766794546e+105,3.7281811705966656e+105,-1.8156975545699313e+106
9.775216002,6.685482723905212e+105,3.6931003156706706e+105,-1.7985094463275859e+106
9.779970429,6.621187452257574e+105,3.6583470446962437e+105,-1.7814794408908876e+106
9.784724908,6.557537158046024e+105,3.6239183162290684e+105,-1.7646061412768294e+106
9.789479387,6.494525115887091e+105,3.5898111195914535e+105,-1.7478881623848894e+106
9.794233866,6.432144668193295e+105,3.556022474460966e+105,-1.7313241308967718e+106
9.798988346,6.3703892245539e+105,3.5225494304655215e+105,-1.7149126851768232e+106
9.803742825,6.309252261122433e+105,3.48938906678485e+105,-1.698652475173173e+106
9.808497304,6.24872732001085e+105,3.4565384917582613e+105,-1.6825421623196328e+106
9.813251731,6.188808008690205e+105,3.4239948424986253e+105,-1.6665804194383785e+106
9.81800621,6.129487999397748e+105,3.3917552845124623e+105,-1.6507659306434173e+106
9.822760689,6.070761028550328e+105,3.3598170113260236e+105,-1.6350973912448375e+106
9.827515168,6.012620896163916e+105,3.3281772441172605e+105,-1.6195735076538303e+106
9.832269648,5.955061465279146e+105,3.2968332313535703e+105,-1.604192997288468e+106
9.837024127,5.898076661392697e+105,3.265782248435225e+105,-1.5889545884802187e+106
9.841778606,5.841660471894393e+105,3.235021597344362e+105,-1.573857020381178e+106
9.846533033,5.785806945509963e+105,3.204548606299428e+105,-1.5588990428719935e+106
9.851287512,5.730510191749383e+105,3.174360629415001e+105,-1.5440794164704588e+106
9.856041991,5.67576438036075e+105,3.144455046366874e+105,-1.529396912240761e+106
9.860796471,5.621563740789562e+105,3.1148292620623047e+105,-1.5148503117033607e+106
9.86555095,5.567902561643301e+105,3.08548070631533e+105,-1.5004384067454832e+106
9.870305429,5.51477519016123e+105,3.0564068335270464e+105,-1.4861599995321993e+106
9.875059856,5.462176031689298e+105,3.0276051223707963e+105,-1.4720139024180845e+106
9.879814335,5.410099549160063e+105,2.999073075482175e+105,-1.4579989378594573e+106
9.884568814,5.35854026257749e+105,2.9708082191537886e+105,-1.4441139383271842e+106
9.889323293,5.307492748506539e+105,2.942808103034691e+105,-1.430357746220055e+106
9.894077773,5.256951639567381e+105,2.915070299834429e+105,-1.4167292137787403e+106
9.898832252,5.206911623934111e+105,2.8875924050316094e+105,-1.4032272030003385e+106
9.903586731,5.157367444837809e+105,2.860372036586912e+105,-1.3898505855535225e+106
9.90834121,5.108313900073834e+105,2.833406834660513e+105,-1.3765982426943143e+106
9.913095637,5.059745841513209e+105,2.8066944613338896e+105,-1.363469065182501e+106
9.917850116,5.011658174617936e+105,2.7802326003359586e+105,-1.3504619531986987e+106
9.922604596,4.964045857960097e+105,2.7540189567734937e+105,-1.3375758162620601e+106
9.927359075,4.916903902744632e+105,2.7280512568657657e+105,-1.3248095731486329e+106
9.932113554,4.870227372335622e+105,2.702327247683349e+105,-1.3121621518103727e+106
9.936868033,4.824011381785994e+105,2.676844696891032e+105,-1.2996324892948162e+106
9.941622512,4.778251097370497e+105,2.6516013924947685e+105,-1.28721953166541e+106
9.946376939,4.732941736121848e+105,2.626595142592624e+105,-1.274922233922504e+106
9.951131418,4.688078565369974e+105,2.601823775129669e+105,-1.2627395599250195e+106
9.955885898,4.643656902284332e+105,2.5772851376567494e+105,-1.2506704823127979e+106
9.960640377,4.599672113419257e+105,2.5529770970930966e+105,-1.2387139824296456e+106
9.965394856,4.556119614262317e+105,2.528897539492742e+105,-1.226869050247093e+106
9.970149335,4.512994868785649e+105,2.5050443698146867e+105,-1.215134684288897e+106
9.974903814,4.4702933890002265e+105,2.4814155116967806e+105,-1.2035098915563228e+106
9.979658293,4.4280107345130704e+105,2.458008907233276e+105,-1.1919936874542322e+106
9.984412721,4.3861425120873776e+105,2.4348225167560236e+105,-1.1805850957179974e+106
9.9891672,4.344684375205574e+105,2.411854318619311e+105,-1.1692831483412503e+106
9.993921679,4.303632023635312e+105,2.3891023089883217e+105,-1.1580868855044736e+106
9.998676158,4.2629812029984557e+105,2.3665645016312296e+105,-1.1469953555044332e+106
10.00343064,4.222727704343063e+105,2.344238927714915e+105,-1.136007614684438e+106
10.00818512,4.1828673637183376e+105,2.3221236356043166e+105,-1.1251227273654145e+106
10.0129396,4.143396061752591e+105,2.300216690665427e+105,-1.114339765777781e+106
10.01769408,4.1043097232341976e+105,2.2785161750719744e+105,-1.1036578099941024e+106
10.02244855,4.0656043166955595e+105,2.2570201876157934e+105,-1.0930759478625169e+106
10.02720298,4.0272758540000935e+105,2.2357268435209198e+105,-1.0825932749409364e+106
10.03195746,3.989320389932269e+105,2.2146342742614281e+105,-1.07220889443201e+106
10.03671194,3.9517340217907104e+105,2.1937406273830366e+105,-1.0619219171188475e+106
10.04146642,3.914512888984367e+105,2.1730440663284758e+105,-1.0517314613015085e+106
10.0462209,3.8776531726317253e+105,2.1525427702666384e+105,-1.0416366527342516e+106
10.05097538,3.841151095163039e+105,2.13223493392552e+105,-1.0316366245635355e+106
10.05572986,3.805002919925553e+105,2.1121187674289424e+105,-1.0217305172667589e+106
10.06048428,3.7692049507917176e+105,2.092192496137058e+105,-1.0119174785917451e+106
10.06523876,3.7337535317703596e+105,2.0724543604906075e+105,-1.0021966634969765e+106
10.06999324,3.6986450466207767e+105,2.0529026158588827e+105,-9.925672340925891e+105
10.07474772,3.6638759184697387e+105,2.0335355323913317e+105,-9.830283595821296e+105
10.0795022,3.629442609431348e+105,2.0143513948727627e+105,-9.73579216205075e+105
10.08425668,3.5953416202297284e+105,1.9953485025820876e+105,-9.642189871801168e+105
10.08901116,3.56156948982451e+105,1.9765251691545368e+105,-9.54946862649203e+105
10.09376564,3.528122795039068e+105,1.9578797224472823e+105,-9.457620396223337e+105
10.09852012,3.494998150191432e+105,1.939410504408397e+105,-9.366637219231063e+105
10.10327454,3.46219220672778e+105,1.921115870949072e+105,-9.276511201350015e+105
10.10802902,3.429701652858428e+105,1.902994191819012e+105,-9.187234515484018e+105
10.1127835,3.3975232131962326e+105,1.885043850484929e+105,-9.098799401083297e+105
10.11753798,3.3656536483973616e+105,1.867263244012044e+105,-9.011198163628846e+105
10.12229246,3.3340897548043634e+105,1.8496507829485214e+105,-8.924423174123633e+105
10.12704694,3.302828364091491e+105,1.8322048912127596e+105,-8.83846686859041e+105
10.13180142,3.271866342912267e+105,1.814924005983469e+105,-8.753321747575915e+105
