Time (s),Acceleration x (m/s^2),Acceleration y (m/s^2),Acceleration z (m/s^2)
10.00221099,1.366301775,-9.008976936,1.832902193
10.00696573,1.277767301,-8.71705246,1.971685886
10.01172047,1.222732425,-8.449056625,2.160718918
10.01647521,1.179661512,-8.226524353,2.364108801
10.0212299,1.225125194,-8.13320446,2.555534601
10.02598464,1.237089276,-8.121239662,2.71824646
10.03073938,1.148554921,-8.159524918,2.857030153
10.03549412,1.033699393,-8.291130066,2.995813847
10.04024886,0.9523434043,-8.417949677,2.98863554
10.04500354,0.9260223508,-8.537590981,3.01974225
10.04975828,0.8973084688,-8.647661209,3.105883837
10.05451302,0.7968099117,-8.74576664,3.170490026
10.05926776,0.6604190469,-8.863015175,3.235096216
10.0640225,0.5096712112,-8.999405861,3.227917671
10.06877719,0.2967100143,-9.116654396,3.24466753
10.07353193,0.1076770201,-9.226723671,3.333201885
10.07828667,-0.1244267747,-9.317651749,3.397808075
10.08304141,-0.409172684,-9.446864128,3.383451223
10.08779609,-0.7178468108,-9.537791252,3.323630571
10.09255083,-0.9523434043,-9.631111145,3.192025423
10.09730557,-1.184447169,-9.69811058,3.046063185
10.10206031,-1.371087432,-9.745966911,2.94317174
10.106815,-1.560120344,-9.781859398,2.871387243
10.11156974,-1.670190215,-9.722038269,2.854637384
10.11632448,-1.770688772,-9.702896118,2.778067112
10.12107922,-1.892722726,-9.6693964,2.679961443
10.12583396,-2.074577332,-9.643074989,2.574677229
10.13058865,-2.244467735,-9.56411171,2.464607239
10.13534339,-2.383251429,-9.537791252,2.431107759
10.14009813,-2.562713146,-9.54257679,2.533999205
10.14485286,-2.713460922,-9.568898201,2.627319336
10.1496076,-2.900100946,-9.583254814,2.634497643
10.15436229,-3.144168854,-9.611968994,2.577069998
10.15911703,-3.366701365,-9.628718376,2.555534601
10.16387177,-3.610769272,-9.64068222,2.553141832
10.16862651,-3.876372576,-9.619147301,2.443071842
10.1733812,-4.103690624,-9.590433121,2.273181438
10.17813594,-4.280759811,-9.547362328,2.103291035
10.18289068,-4.409972191,-9.430113792,1.907079697
10.18764542,-4.505684853,-9.267401695,1.660618901
10.19240016,-4.565505505,-9.095118523,1.478764415
10.19715484,-4.599005222,-8.908478737,1.354337573
10.20190958,-4.65403986,-8.90130043,1.217946768
10.20666432,-4.752145767,-8.841479301,0.9332008362
10.21141906,-4.953142643,-9.209974289,-0.1028913707
10.21617375,-4.895715237,-9.738788605,-2.390429735
10.22092849,-5.556134224,-9.602396965,-4.656432629
10.22568323,-7.372286797,-9.25783062,-5.570491314
10.23043797,-7.70728159,-9.30807972,-6.386443615
10.23519271,-7.920242786,-8.611768723,-4.93878603
10.2399474,-7.829315662,-7.994420528,-2.498106956
10.24470214,-7.087540627,-7.585247993,-0.4809573591
10.24945688,-6.506084919,-7.503891945,0.4235295951
10.25421162,-6.601797581,-7.633104324,0.4785645306
10.2589663,-6.075376511,-7.855636597,0.404387027
10.26372104,-5.615954876,-8.056633949,0.4857429862
10.26847578,-5.015356064,-8.197810173,0.5407779217
10.27323052,-4.400400639,-8.362915039,0.3349951804
10.27798526,-3.732803345,-8.590232849,0.01914258115
10.28273995,-3.14895463,-8.755337715,-0.6149554253
10.28749469,-2.452643156,-8.958727837,-1.526620865
10.29224943,-1.890329838,-9.150154114,-2.354537487
10.29700417,-1.442872047,-9.305686951,-2.713460922
10.30175886,-1.217946768,-9.408578873,-2.490928411
10.30651359,-1.105484009,-9.446864128,-1.725225091
10.31126833,-1.304088354,-9.430113792,-0.6699903607
10.31602307,-1.715653777,-9.310472488,0.5910272002
10.32077781,-1.883151412,-9.140582085,1.725225091
10.3255325,-1.909472466,-9.092725754,2.663211584
10.33028724,-1.727617979,-9.147761345,3.553341627
10.33504198,-1.483550072,-9.198010445,4.137190342
10.33979672,-1.35912323,-9.250652313,4.632504463
10.34455146,-1.234696507,-9.382257462,4.919643402
10.34930615,-1.205982566,-9.44207859,4.977071285
10.35406089,-1.220339537,-9.446864128,4.792823792
10.35881563,-1.299302697,-9.468399048,4.560719967
10.36357037,-1.466800332,-9.482755661,4.153940201
10.36832505,-1.521835208,-9.533005714,3.452843189
10.37307979,-1.708475351,-9.578469276,2.531606436
10.37783453,-2.129612207,-9.717252731,1.801795483
10.38258927,-2.74935317,-9.937392235,1.622333765
10.38734401,-3.287738323,-10.2029953,1.931007862
10.3920987,-3.735196114,-10.45663452,2.368894339
10.39685344,-4.130012035,-10.60977554,2.854637384
10.40160818,-4.39800787,-10.6480608,3.366701365
10.40636292,-4.591826439,-10.62173939,3.69212532
10.41111761,-4.733003139,-10.52363396,3.881158352
10.41587234,-4.878965378,-10.48056316,3.668197155
10.42062708,-5.185246468,-10.52602673,3.448057413
10.42538182,-5.666203976,-10.59063339,3.067598581
10.43013656,-6.331408501,-10.65763187,2.471785784
10.43489125,-7.08036232,-10.66959572,1.660618901
10.43964599,-7.76949501,-10.59063339,0.784845829
10.44440073,-8.374878883,-10.48056316,0.0765703246
10.44915547,-8.824729919,-10.35135078,-0.2129612118
10.45391016,-9.159725189,-10.12881851,-0.01914258115
10.4586649,-9.401400566,-9.889535904,0.4259224236
10.46341964,-9.544969559,-9.643074989,0.8829515576
10.46817438,-9.655039787,-9.358329773,1.127019525
10.47292912,-9.755537987,-9.107083321,1.347159147
10.4776838,-9.863214493,-8.903693199,1.366301775
10.48243854,-9.956535339,-8.769695282,1.292124271
10.48719328,-9.901499748,-8.66680336,1.16769743
10.49194802,-9.635896683,-8.559126854,0.9858429432
10.49670271,-9.042476654,-8.46102047,0.7441678643
10.50145745,-8.164310455,-8.362915039,0.4833501875
10.50621219,-7.173682213,-8.327022552,0.2225325108
10.51096693,-6.206982136,-8.365307808,0.06460621208
10.51572167,-5.319244862,-8.585447311,0.05742774159
10.52047636,-4.584648132,-8.961120605,0.1722832322
10.52523109,-3.936193228,-9.533005714,0.3230310678
10.52998583,-3.37387991,-10.32024384,0.5623133183
10.53474057,-2.981456995,-11.23669529,0.7992027402
10.53949531,-2.641676188,-12.2919302,1.009771109
10.54425,-2.385644197,-13.38544941,1.124626637
10.54900474,-2.043470621,-14.39282799,1.397408366
10.55375948,-1.820937991,-15.27099419,1.493121386
10.55851422,-1.741974831,-16.16830254,1.450050473
10.56326896,-1.763510346,-17.15414619,1.129412293
10.56802365,-1.636690736,-18.2596302,0.6963114142
10.57277839,-1.442872047,-19.37468529,0.3302095234
10.57753313,-1.050449133,-20.29113579,0.2273181528
10.58228787,-0.8303094506,-20.84866333,0.524028182
10.58704255,-0.6867401004,-21.15733719,1.129412293
10.59179729,-0.6460621357,-21.27697945,1.713261008
10.59655203,-0.3876372576,-21.43969154,1.931007862
10.60130677,-0.08135596663,-21.37029839,2.52682066
10.60606151,0.02871387079,-20.90609169,2.78285265
10.6108162,0.2584248483,-20.06142426,2.811566591
10.61557094,0.6101697683,-19.02293968,2.579462767
10.62032568,1.028913736,-17.80260086,2.002792597
10.62508042,1.337587833,-16.57986832,1.052842021
10.62983516,1.725225091,-15.14417458,-0.8494520187
10.63458984,1.808973908,-13.71805191,-2.656033039
10.63934458,1.631905079,-12.42353535,-4.007977962
10.64409932,1.261017561,-11.23908806,-4.486542225
10.64885406,0.7944171429,-10.36092186,-3.969692707
10.65360875,0.4378865361,-9.530612946,-3.048455954
10.65836349,0.004785645287,-8.829515457,-2.378465652
10.66311823,-0.6293123364,-8.525627136,-1.983649969
10.66787297,-0.94277215,-8.420342445,-1.581655741
10.67262771,-1.189232826,-8.446663857,-1.177268744
10.6773824,-1.485942841,-8.508877754,-1.057627559
10.68213714,-1.892722726,-8.535198212,-1.35912323
10.68689188,-2.352144718,-8.480163574,-1.765903115
10.69164662,-2.68713975,-8.551948547,-1.945364833
10.6964013,-2.90967226,-8.599804878,-1.928615093
10.70115604,-2.840280533,-8.683553696,-1.507478237
10.70591078,-2.627319336,-8.757730484,-1.170090318
10.71066552,-2.478964329,-8.650053978,-0.8853443861
10.71542026,-2.251646042,-8.487341881,-0.4809573591
10.72017495,-2.151147604,-8.176275253,-0.2273181528
10.72492969,-1.986042738,-7.917850018,-0.05264209956
10.72968443,-1.794616938,-7.623532772,0.009571290575
10.73443917,-1.607976794,-7.310073376,0.1052841991
10.73919391,-1.339980721,-6.958328247,0.2440679073
10.74394859,-1.043270707,-6.611369133,0.3158525825
10.74870333,-0.8063812256,-6.285944939,0.4474578202
10.75345807,-0.524028182,-5.91266489,0.5551348329
10.75821281,-0.2536391914,-5.606383324,0.650847733
10.7629675,0.01196411345,-5.347958565,0.8183453679
10.76772224,0.2895315289,-5.161318302,0.9882357717
10.77247698,0.5503492355,-4.998606682,1.148554921
10.77723172,0.7657032609,-4.852644444,1.189232826
10.78198646,1.019342422,-4.675575256,1.196411371
10.78674115,1.203589797,-4.575077057,1.24666059
10.79149589,1.356730461,-4.500899315,1.251446247
10.79625063,1.478764415,-4.407579422,1.203589797
10.80100536,1.612762451,-4.340580463,1.117448211
10.80576005,1.686939955,-4.338187218,0.9403793216
10.81051479,1.780260086,-4.352544308,0.756131947
10.81526953,1.907079697,-4.405186653,0.5383850932
10.82002427,2.048256159,-4.522434711,0.2464607358
10.82477901,2.225325108,-4.634897232,-0.09092725813
10.8295337,2.385644197,-4.759324074,-0.4354937077
10.83428844,2.586641312,-4.838287354,-0.7728816867
10.83904318,2.74935317,-4.893322468,-1.03848505
10.84379792,2.857030153,-4.871787071,-1.35912323
10.84855266,2.859423161,-4.831109047,-1.780260086
10.85330734,2.811566591,-4.785645485,-2.182254314
10.85806208,2.581855536,-4.828716278,-2.598605394
10.86281682,1.976471543,-4.943571568,-2.969492912
10.86757156,0.9906286001,-5.125426292,-3.170490026
10.8723263,-0.1770688742,-5.2737813,-3.479164124
10.87708099,-1.361516118,-5.405386448,-4.043870449
10.88183573,-2.517249346,-5.553741455,-4.706682205
10.88659047,-3.69212532,-5.740381718,-5.230710506
10.89134521,-4.950749874,-5.989234924,-5.391029358
10.89609995,-6.28355217,-6.221338749,-4.620540619
10.90085464,-7.84845829,-6.479763508,-2.809173822
10.90560938,-9.410971642,-6.714260101,0.3302095234
10.91036412,-11.33719349,-7.214360237,3.964907169
10.91511886,-13.02174091,-7.994420528,7.700103283
10.91987354,-13.99322701,-9.372686386,10.72941685
10.92462828,-14.136796,-11.24865913,13.15095329
10.92938302,-15.21117401,-13.07199001,13.65583897
10.93413776,-15.7304163,-14.66321754,11.72004509
10.9388925,-16.18265915,-16.19701576,9.035298347
10.94364719,-16.7665081,-17.31925011,6.812366009
10.94840193,-16.68515205,-17.46999741,5.414957523
10.95315667,-17.03450394,-16.42433548,4.185046673
10.95791141,-17.01775551,-14.50768375,3.177668571
10.96266609,-16.63729668,-12.64846039,2.383251429
10.96742083,-16.08694649,-10.78445148,1.684547186
10.97217557,-15.58684635,-9.121439934,1.002592683
10.97693031,-14.60100365,-7.791030407,0.6747759581
10.98168505,-13.09831142,-6.61854744,0.3230310678
10.98643974,-11.33719349,-5.735595703,-0.2081755698
10.99119448,-9.863214493,-5.096712112,-0.5359922647
10.99594922,-8.69551754,-4.596612453,-0.6029912829
11.00070396,-7.680960655,-4.242474556,-0.5168496966
11.0054587,-6.766902447,-4.055834293,-0.394815743
11.01021339,-5.828916073,-3.993621111,-0.4618147612
11.01496813,-4.936393261,-4.165904045,-0.5910272002
11.01972286,-3.938585997,-4.761716843,-1.021735311
11.02447761,-2.89292264,-5.938985825,-1.811366796
11.02923229,-1.986042738,-7.623532772,-2.809173822
11.03398703,-1.284945726,-9.650253296,-3.649054527
11.03874177,-0.9355936646,-11.94257736,-4.043870449
11.04349651,-0.8733802438,-14.17986679,-3.598805189
11.04825125,-1.591227055,-16.75215149,-2.947957516
11.05300594,-2.158325911,-18.13281059,-0.9284151793
11.05776068,-3.141776085,-19.19043732,1.136590719
11.06251542,-4.249652863,-19.93460464,3.091526747
11.06727016,-4.941178799,-20.28395844,3.457628727
11.0720249,-5.230710506,-20.6309166,3.342773199
11.07677958,-5.575276852,-20.64527321,3.385843992
11.08153432,-5.759523869,-19.86760712,2.569891453
11.08628906,-5.843272686,-17.90309906,1.155733347
11.0910438,-5.237888813,-15.65623856,-0.1698904037
11.09579849,-3.840480328,-13.46441269,-0.6436693072
11.10055323,-2.519642353,-11.38504982,-0.5886343718
11.10530797,-1.409372568,-9.872786522,-0.2871387303
11.11006271,-0.6005984545,-9.090332985,0.3110669553
11.11481745,-0.1603191197,-8.673981667,1.088734269
11.11957214,0.1531406492,-8.408378601,1.344766378
11.12432688,0.1292124242,-8.140382767,1.234696507
11.12908162,0.05742774159,-8.161917686,1.033699393
11.13383636,0.007178467698,-8.245666504,0.9858429432
11.13859104,-0.05503492057,-8.353343964,0.9595218897
11.14334578,-0.05264209956,-8.504091263,0.7944171429
11.14810052,-0.0239282269,-8.604590416,0.6149554253
11.15285526,0.04546362907,-8.664410591,0.5024927258
11.15761,0.1292124242,-8.683553696,0.5192425251
11.16236474,0.1866401732,-8.58784008,0.6005984545
11.16711943,0.2488535494,-8.456234932,0.7369893789
11.17187417,0.2919243574,-8.271987915,0.7968099117
11.17662891,0.2847459018,-7.917850018,0.8111668825
11.18138365,0.2416750938,-7.563712597,0.7130611539
11.18613839,0.2416750938,-7.197610378,0.6221339107
11.19089307,0.2273181528,-6.994220734,0.5982056856
11.19564781,0.2344966233,-6.819544315,0.6364908218
11.20040255,0.1770688742,-6.762116909,0.7657032609
11.20515729,0.1124626622,-6.790830612,0.866201818
11.20991198,0.1172483116,-6.886543751,0.9212366939
11.21466672,0.1411765367,-7.068397999,1.00737834
11.21942146,0.1818545163,-7.326822758,1.146162033
11.2241762,0.2344966233,-7.609176159,1.292124271
11.22893089,0.2297109663,-7.96331358,1.466800332
11.23368563,0.2033899277,-8.350951195,1.631905079
11.23844036,0.07417750359,-8.702695847,1.825723648
11.2431951,-0.08374879509,-9.035298347,2.012363911
11.24794984,-0.2799602449,-9.324830055,2.203789711
11.25270453,-0.4594219327,-9.588040352,2.450250387
11.25745927,-0.6197410822,-9.731609344,2.74935317
11.26221401,-0.6699903607,-9.815358162,3.060420275
11.26696875,-0.732203722,-9.927821159,3.208775282
11.27172349,-0.8925228715,-9.999606133,3.278167009
11.27647818,-1.002592683,-10.01635551,3.450450182
11.28123292,-1.062413216,-9.980463028,3.675375462
11.28598766,-1.153340459,-9.836894035,3.751945972
11.2907424,-1.265803218,-9.7196455,3.905086517
11.29549714,-1.363908887,-9.573683739,4.067798615
11.30025182,-1.543370605,-9.370293617,4.07736969
11.30500656,-1.773081541,-9.142974854,3.905086517
11.3097613,-1.9812572,-8.939585686,3.663411379
11.31451604,-2.194218397,-8.712266922,3.452843189
11.31927073,-2.512463808,-8.525627136,3.395415306
11.32402547,-2.754138947,-8.350951195,3.220739365
11.32878021,-2.938386202,-8.221738815,3.072384357
11.33353495,-3.141776085,-8.176275253,3.01974225
11.33828964,-3.259024382,-8.20498848,3.024527788
11.34304438,-3.426522017,-8.250452042,2.933600664
11.34779912,-3.579662561,-8.269595146,2.864208698
11.35255386,-3.75673151,-8.288737297,2.778067112
11.35730859,-3.924229145,-8.334200859,2.641676188
11.36206333,-4.063013077,-8.346165657,2.481357098
11.36681802,-4.139583111,-8.415556908,2.294716835
11.37157276,-4.240081787,-8.506484032,2.148754835
11.3763275,-4.287938118,-8.559126854,2.002792597
11.38108224,-4.319045067,-8.626125336,1.864008784
11.38583693,-4.359723091,-8.678768158,1.689332843
11.39059167,-4.381258488,-8.69551754,1.466800332
11.39534641,-4.469792843,-8.805587769,1.308874011
11.40010115,-4.622933388,-8.896514893,1.079162955
11.40485589,-4.625326157,-9.205188751,0.4977070987
11.40961057,-4.52482748,-10.08574772,-1.507478237
11.41436531,-4.185046673,-10.25563812,-3.462414265
11.41912005,-5.797809124,-10.06181908,-5.647061348
11.42387479,-5.601597786,-10.3154583,-7.003791809
11.42862948,-6.242874146,-9.631111145,-6.42472887
11.43338422,-6.43908596,-9.092725754,-4.146761417
11.43813896,-6.427121639,-8.559126854,-1.799402595
11.4428937,-6.264409542,-8.250452042,-0.4019941986
11.44764844,-5.816951752,-8.157132149,0.1555334777
11.45240313,-5.367101192,-8.202595711,0.4761717021
11.45715787,-4.890929699,-8.176275253,0.3756731451
11.4619126,-4.381258488,-8.23370266,0.3206382394
11.46666734,-3.766302824,-8.334200859,0.3014956415
11.47142208,-3.086741209,-8.523234367,0.2656033039
11.47617677,-2.52682066,-8.712266922,0.1387837082
11.48093151,-2.026720762,-8.95154953,-0.2392822653
11.48568625,-1.517049551,-9.262616158,-0.8518448472
11.49044099,-1.100698471,-9.561718941,-1.517049551
11.49519568,-0.7944171429,-9.858428955,-1.864008784
11.49995042,-0.7274180651,-10.11924744,-1.636690736
11.50470516,-0.9667003751,-10.21974564,-0.8494520187
11.5094599,-1.289731383,-10.24845982,0.1866401732
11.51421464,-1.411765337,-10.32981491,1.138983607
11.51896932,-1.430907965,-10.47817039,2.069791555
11.52372406,-1.332802176,-10.60499001,2.711068153
11.5284788,-1.201196909,-10.6480608,3.168097258
11.53323354,-1.217946768,-10.62413216,3.538984776
11.53798823,-1.26341033,-10.57866859,3.88594389
11.54274297,-1.313659668,-10.43988514,4.048655987
11.54749771,-1.50269258,-10.28913784,4.029513359
11.55225245,-1.780260086,-10.09771156,3.699303865
11.55700719,-2.196611166,-9.949356079,3.187239647
11.56176188,-2.871387243,-9.812965393,2.799602509
11.56651662,-3.529413462,-9.616754532,2.694318295
11.57127136,-4.122833252,-9.501898766,2.73260355
11.57602609,-4.541577339,-9.473184586,2.876172781
11.58078083,-4.833501816,-9.573683739,3.074777126
11.58553552,-5.127819061,-9.743574142,3.201596737
11.59029026,-5.503491879,-9.999606133,3.206382275
11.595045,-6.089733601,-10.34656525,3.05324173
11.59979974,-6.774080753,-10.71027374,2.830709219
11.60455448,-7.601997375,-11.16969585,2.447857618
11.60930917,-8.484949112,-11.55494022,2.048256159
11.61406391,-9.389435768,-11.99761295,1.682154298
11.61881865,-10.06421185,-12.23689461,1.909472466
11.62357339,-10.41117096,-12.31585789,1.883151412
11.62832807,-10.70309544,-12.10768223,1.462014675
11.63308281,-11.14098263,-11.66501045,1.179661512
11.63783755,-11.63868904,-11.12183952,0.8039883971
11.64259229,-12.0095768,-10.42313576,0.1842473447
11.64734703,-12.21057415,-9.707681656,-0.5742774606
11.65210172,-12.20100307,-8.961120605,-1.196411371
11.65685646,-11.83490086,-8.274380684,-1.205982566
11.6616112,-11.03569794,-7.640282631,-0.6101697683
11.66636594,-10.0331049,-7.104290485,0.2703889608
11.67112063,-8.898907661,-6.742974281,1.122233868
11.67587537,-7.831708431,-6.56829834,1.720439434
11.6806301,-6.924828529,-6.501298904,2.120040894
11.68538484,-6.061019897,-6.561119556,2.390429735
11.69013958,-5.283352375,-6.79561615,2.627319336
11.69489427,-4.644468784,-7.133004189,2.569891453
11.69964901,-4.264009953,-7.649854183,2.54117775
11.70440375,-3.991228104,-8.394021988,2.502892494
11.70915849,-3.747160196,-9.379864693,2.385644197
11.71391323,-3.50069952,-10.52841949,2.215753794
11.71866792,-3.294916868,-11.85404301,2.098505497
11.72342266,-3.141776085,-13.24905872,2.055434704
11.7281774,-3.01974225,-14.62493229,2.019542217
11.73293214,-2.950350285,-16.03430367,1.868794441
11.73768682,-2.883351326,-17.37907028,1.596012712
11.74244156,-2.708675146,-18.84108543,1.205982566
11.7471963,-2.39760828,-20.26002884,1.10309124
11.75195104,-2.055434704,-21.39422798,1.43808639
11.75670578,-1.739582062,-22.23889351,1.808973908
11.76146047,-1.184447169,-22.87299156,2.644068956
11.76621521,-0.8207381964,-23.2917347,3.455235958
11.77096995,-0.4785645306,-23.52144623,4.072584152
11.77572469,-0.1986042857,-23.42573357,4.541577339
11.78047943,0.2464607358,-22.99981117,4.881358147
11.78523412,0.7154539824,-22.00439644,4.890929699
11.78998886,1.067198873,-20.63331032,4.649254322
11.79474359,1.225125194,-19.22154427,4.486542225
11.79949833,1.272981644,-17.70449448,4.290330887
11.80425302,1.268195987,-16.01516151,3.747160196
11.80900776,1.186840057,-14.45264912,3.194418192
11.8137625,1.122233868,-13.09591866,2.634497643
11.81851724,1.095912814,-11.97368431,2.043470621
11.82327198,1.060020447,-10.94955635,0.6364908218
11.82802667,0.8518448472,-9.15733242,-3.505485058
11.83278141,0.390030086,-7.477570534,-8.599804878
11.83753615,-0.3230310678,-6.692724705,-11.74397373
11.84229089,-1.033699393,-6.211767673,-11.72483063
11.84704563,-0.8590233326,-5.953342915,-8.635697365
11.85180031,-0.500099957,-6.017949104,-5.489135265
11.85655505,-0.1842473447,-6.558726788,-3.172882795
11.86130979,0.2105683982,-7.192824841,-1.466800332
11.86606453,0.2368894368,-7.590033531,-0.07896314561
11.87081927,0.1555334777,-7.733603001,0.6364908218
11.87557396,-0.04546362907,-7.745566845,0.7465606928
11.8803287,-0.3493520916,-7.616354465,0.4474578202
