Time (s),Acceleration x (m/s^2),Acceleration y (m/s^2),Acceleration z (m/s^2)
4.004138214,-663477772407.8975,-15322216820.56723,6818836855326.805
4.00891488,-665616682306.5938,-15443136565.8125,6807850055113.844
4.013678266,-667727873354.1289,-15562994243.501266,6796720033367.984
4.018468266,-669811430256.1641,-15681792209.546036,6785447921303.773
4.023244932,-671867438720.2432,-15799532834.995316,6774034852162.398
4.028008266,-673895985437.7148,-15916218505.990936,6762481961095.766
4.032798266,-675897158065.5117,-16031851623.728653,6750790385050.414
4.037574932,-677871045207.7988,-16146434604.421661,6738961262651.281
4.042338318,-679817736397.5068,-16259969879.266525,6726995734085.336
4.047128318,-681737322077.7607,-16372459894.411041,6714894940985.07
4.051904985,-683629893583.2227,-16483907110.923538,6702660026311.922
4.056681651,-685495543121.3711,-16594314004.763123,6690292134239.711
4.061458318,-687334363753.7383,-16703683066.75035,6677792410038.102
4.066234985,-689146449377.1279,-16812016802.537933,6665161999956.078
4.071011651,-690931894704.8418,-16919317732.581268,6652402051105.469
4.07578837,-692690795247.9375,-17025588392.108566,6639513711344.523
4.080565037,-694423247296.5381,-17130831331.090088,6626498129161.539
4.085341703,-696129347901.2148,-17235049114.206192,6613356453558.5625
4.09011837,-697809194854.4619,-17338244320.813904,6600089833935.203
4.094895037,-699462886672.2754,-17440419544.911713,6586699419972.555
4.099671703,-701090522575.8486,-17541577395.102325,6573186361517.156
4.104448422,-702692202473.3965,-17641720494.553223,6559551808464.945
4.109225089,-704268026942.125,-17740851480.954773,6545796910645.164
4.114001755,-705818097210.3682,-17838973006.475647,6531922817704.242
4.118778422,-707342515139.918,-17936087737.715363,6517930678989.641
4.123555089,-708841383208.5791,-18032198355.65387,6503821643433.641
4.128331807,-710314804492.9746,-18127307555.5979,6489596859437.07
4.133108474,-711762882651.6201,-18221418047.12387,6475257474752.93
4.137885141,-713185721908.2852,-18314532554.01718,6460804636369.867
4.142661807,-714583427035.6553,-18406653814.207855,6446239490395.477
4.147438474,-715956103339.3076,-18497784579.702484,6431563181939.406
4.152215141,-717303856642.0098,-18587927616.512634,6416776854996.359
4.15699186,-718626793268.3379,-18677085704.580017,6401881652329.07
4.161768526,-719925020029.6104,-18765261637.69879,6386878715351.289
4.166545193,-721198644209.1348,-18852458223.435394,6371769184010.859
4.17132186,-722447773547.7646,-18938678283.046265,6356554196672.969
4.176098526,-723672516229.7598,-19023924651.39386,6341234890003.664
4.180875193,-724872980868.9424,-19108200176.86133,6325812398853.695
4.18565186,-726049276495.1357,-19191507721.266144,6310287856142.789
4.190428578,-727201512540.8652,-19273850159.772858,6294662392744.453
4.195205245,-728329798828.3008,-19355230380.805023,6278937137371.4375
4.199981912,-729434245556.419,-19435651285.95645,6263113216462.016
4.204758578,-730514963288.3623,-19515115789.901855,6247191754067.25
4.209535245,-731572062938.9648,-19593626820.306915,6231173871739.445
4.214311964,-732605655762.417,-19671187317.737823,6215060688422.023
4.21908863,-733615853340.044,-19747800235.570312,6198853320341.031
4.223865297,-734602767568.1748,-19823468539.898193,6182552880898.492
4.228641964,-735566510646.082,-19898195209.441376,6166160480567.828
4.23341863,-736507195063.9619,-19971983235.453186,6149677226791.555
4.238195297,-737424933590.9258,-20044835621.62686,6133104223881.414
4.242971964,-738319839262.9678,-20116755384.000885,6116442572921.086
4.247748682,-739192025370.877,-20187745550.8627,6099693371671.594
4.252525349,-740041605448.0645,-20257809162.6503,6082857714479.461
4.257302016,-740868693258.2764,-20326949271.851105,6065936692187.672
4.262078682,-741673402783.1592,-20395168942.897675,6048931392049.469
4.266855349,-742455848209.6445,-20462471252.0596,6031842897645.0
4.271632016,-743216143917.123,-20528859287.331085,6014672288800.797
4.276408735,-743954404464.3857,-20594336148.31378,5997420641512.055
4.281185401,-744670744576.3164,-20658904946.09445,5980089027867.711
4.285962068,-745365279130.3213,-20722568803.116913,5962678515978.273
4.290738735,-746038123142.4785,-20785330853.0477,5945190169906.352
4.295515401,-746689391753.3916,-20847194240.634674,5927625049599.875
4.300292068,-747319200213.7373,-20908162121.55771,5909984210827.891
4.305068787,-747927663869.5068,-20968237662.2706,5892268705118.859
4.309845453,-748514898146.9443,-21027424039.833405,5874479579701.344
4.31462212,-749081018537.1865,-21085724441.734283,5856617877446.961
4.319398787,-749626140580.5967,-21143142065.69989,5838684636815.508
4.324175453,-750150379850.7812,-21199680119.49356,5820680891802.18
4.328952172,-750653851938.2832,-21255341820.700867,5802607671886.82
4.333728839,-751136672433.9512,-21310130396.502167,5784466001985.172
4.338505505,-751598956911.9902,-21364049083.431793,5766256902402.07
4.343282172,-752040820912.706,-21417101127.123444,5747981388786.531
4.348058839,-752462379924.9521,-21469289782.04129,5729640472088.68
4.352835505,-752863749368.2979,-21520618311.19629,5711235158518.445
4.357612224,-753245044574.9355,-21571089985.847137,5692766449505.992
4.362388891,-753606380771.3525,-21620708085.185486,5674235341663.844
4.367165557,-753947873059.791,-21669475896.00528,5655642826750.633
4.371942224,-754269636399.5205,-21717396712.35623,5636989891636.344
4.376718891,-754571785587.9492,-21764473835.181366,5618277518268.906
4.38149561,-754854435241.5957,-21810710571.938507,5599506683642.016
4.386272276,-755117699776.9473,-21856110236.20569,5580678359764.023
4.391048943,-755361693391.2314,-21900676147.270782,5561793513627.781
4.39582561,-755586530043.123,-21944411629.70572,5542853107181.367
4.400602276,-755792323433.4082,-21987320012.92569,5523858097299.648
4.405378943,-755979186985.6279,-22029404630.73407,5504809435756.648
4.410155662,-756147233826.7285,-22070668820.853973,5485708069198.6875
4.414932328,-756296576767.751,-22111115924.44757,5466554939118.297
4.419708995,-756427328284.585,-22150749285.6243,5447350981828.875
4.424485662,-756539600498.8047,-22189572250.938873,5428097128440.109
4.429262328,-756633505158.6045,-22227588168.880096,5408794304834.141
4.434038995,-756709153619.8525,-22264800389.35147,5389443431642.414
4.438815714,-756766656827.2891,-22301212263.144775,5370045424223.195
4.44359238,-756806125295.8887,-22336827141.40753,5350601192639.703
4.448369047,-756827669092.4111,-22371648375.105225,5331111641638.789
4.453145714,-756831397817.1699,-22405679314.478943,5311577670630.164
4.45792238,-756817420586.04,-22438923308.4993,5292000173666.1875
4.462699099,-756785846012.7295,-22471383704.317627,5272380039422.25
4.467475766,-756736782191.3389,-22503063846.715576,5252718151177.719
4.472252432,-756670336679.2314,-22533967077.5542,5233015386797.414
4.477029099,-756586616480.2314,-22564096735.223785,5213272618713.586
4.481805766,-756485728028.1699,-22593456154.095398,5193490713908.391
4.486582432,-756367777170.7959,-22622048663.97531,5173670533896.922
4.491359099,-756232869154.0693,-22649877589.563416,5153812934710.859
4.496135818,-756081108606.8447,-22676946249.916534,5133918766882.836
4.500912485,-755912599525.959,-22703257957.917572,5113988875431.617
4.505689151,-755727445261.7373,-22728816019.751495,5094024099848.172
4.510465818,-755525748503.9229,-22753623734.389343,5074025274082.711
4.515242485,-755307611268.0391,-22777684393.08139,5053993226532.82
4.520019203,-755073134882.1895,-22801001278.86078,5033928780032.766
4.52479587,-754822419974.2998,-22823577666.05896,5013832751844.0
4.529572537,-754555566459.8086,-22845416819.83441,4993705953646.883
4.534349203,-754272673529.8174,-22866521995.716187,4973549191533.602
4.53912587,-753973839639.7148,-22886896439.163635,4953363266002.281
4.543902537,-753659162498.2871,-22906543385.14328,4933148971952.273
4.548679255,-753328739057.3291,-22925466057.723724,4912907098680.594
4.553455922,-752982665501.7764,-22943667669.689514,4892638429879.469
4.558232589,-752621037240.3701,-22961151422.174866,4872343743634.961
4.563009255,-752243948896.8701,-22977920504.318054,4852023812426.672
4.567785922,-751851494301.8291,-22993978092.937378,4831679403128.5625
4.572562641,-751443766484.9375,-23009327352.229614,4811311277010.961
4.577339307,-751020857667.9473,-23023971433.49179,4790920189743.844
4.582115974,-750582859258.1885,-23037913474.867035,4770506891401.461
4.586892641,-750129861842.6904,-23051156601.11508,4750072126468.344
4.591669307,-749661955182.9199,-23063703923.408234,4729616633846.68
4.596445974,-749179228210.1582,-23075558539.153564,4709141146864.992
4.601222693,-748681769021.543,-23086723531.84198,4688646393288.07
4.60599936,-748169664876.793,-23097201970.92447,4668133095328.094
4.610776026,-747643002195.6279,-23106996911.71576,4647601969656.891
4.615552693,-747101866555.8975,-23116111395.32556,4627053727419.328
4.62032936,-746546342692.4287,-23124548448.61743,4606489074247.906
4.625106078,-745976514496.5977,-23132311084.195343,4585908710278.617
4.629882745,-745392465016.625,-23139402300.418182,4565313330168.133
4.634659412,-744794276458.5928,-23145825081.44217,4544703623112.383
4.639436078,-744182030188.1768,-23151582397.291077,4524080272866.617
4.644212745,-743555806733.0879,-23156677203.95395,4503443957767.023
4.648989412,-742915685786.2119,-23161112443.509705,4482795350753.969
4.65376613,-742261746209.4404,-23164891044.278046,4462135119396.9375
4.658542797,-741594066038.1836,-23168015920.996277,4441463925921.219
4.663319464,-740912722486.5566,-23170489975.021484,4420782427236.363
4.66809613,-740217791953.2305,-23172316094.55768,4400091274966.418
4.672872797,-739509350027.9287,-23173497154.90753,4379391115481.8867
4.677649516,-738787471498.5566,-23174036018.748413,4358682589933.3945
4.682426182,-738052230358.9512,-23173935536.4321,4337966334287.0
4.687202849,-737303699817.2402,-23173198546.307465,4317242979361.1016
4.691979516,-736541952304.7998,-23171827875.06546,4296513150864.8867
4.696756182,-735767059485.8018,-23169826338.105682,4275777469438.289
4.701532901,-734979092267.3418,-23167196739.923767,4255036550693.3945
4.706309568,-734178120810.1357,-23163941874.519012,4234291005257.199
4.711086235,-733364214539.7676,-23160064525.82144,4213541438815.66
4.715862901,-732537442158.4736,-23155567468.137268,4192788452158.9688
4.720639568,-731697871657.4502,-23150453466.61151,4172032641227.9766
4.725416235,-730845570329.6748,-23144725277.70639,4151274597161.6953
4.730192953,-729980604783.2354,-23138385649.693787,4130514906345.785
4.73496962,-729103040955.1592,-23131437323.16028,4109754150461.9375
4.739746287,-728212944125.7412,-23123883031.523468,4088992906538.09
4.744522953,-727310378933.3701,-23115725501.558258,4068231746999.3945
4.74929962,-726395409389.8486,-23106967453.931824,4047471239719.8516
4.754076339,-725468098896.209,-23097611603.746094,4026711948074.5195
4.758853005,-724528510259.0215,-23087660661.0867,4005954430992.2344
4.763629672,-723576705707.1865,-23077117331.577545,3985199243008.75
4.768406339,-722612746909.1963,-23065984316.940063,3964446934320.1797
4.773183005,-721636694990.8418,-23054264315.556396,3943698050836.621
4.777959724,-720648610553.3467,-23041960023.035797,3922953134235.8477
4.782736391,-719648553691.9072,-23029074132.783447,3902212722016.9375
4.787513057,-718636584014.6152,-23015609336.570923,3881477347553.715
4.792289724,-717612760661.7285,-23001568325.107574,3860747540147.914
4.797066391,-716577142325.2568,-22986953788.61197,3840023825081.996
4.801843057,-715529787268.8281,-22971768417.382416,3819306723671.543
4.806619776,-714470753347.8008,-22956014902.365784,3798596753317.1523
4.811396443,-713400098029.5859,-22939695935.72397,3777894427555.7383
4.81617311,-712317878414.1465,-22922814211.39731,3757200256111.1484
4.820949776,-711224151254.6416,-22905372425.664337,3736514744943.996
4.825726443,-710118972978.1846,-22887373277.697327,3715838396300.5938
4.830503162,-709002399706.6826,-22868819470.11319,3695171708760.8945
4.835279828,-707874487277.7305,-22849713709.5195,3674515177285.3594
4.840056495,-706735291265.5293,-22830058707.05545,3653869293260.6484
4.844833162,-705584867001.8076,-22809857178.9274,3633234544544.0273
4.849609828,-704423269596.7158,-22789111846.938538,3612611415506.3945
4.854386495,-703250553959.666,-22767825439.012268,3592000387073.8516
4.859163214,-702066774820.0889,-22746000689.708862,3571401936767.793
4.86393988,-700871986748.0791,-22723640340.734985,3550816538743.5
4.868716547,-699666244174.9014,-22700747141.445618,3530244663827.242
4.873493214,-698449601413.333,-22677323849.338013,3509686779551.8945
4.87826988,-697222112677.8193,-22653373230.537292,3489143350191.1133
4.883046599,-695983832104.4287,-22628898060.27307,3468614836792.086
4.887823266,-694734813770.5947,-22603901123.34674,3448101697206.8945
4.892599932,-693475111714.6299,-22578385214.58905,3427604386122.543
4.897376599,-692204779954.999,-22552353139.30768,3407123355089.6953
4.902153266,-690923872509.3438,-22525807713.724243,3386659052550.1562
4.906929985,-689632443413.2549,-22498751765.400116,3366211923863.117
4.911706651,-688330546738.792,-22471188133.650574,3345782411330.211
4.916483318,-687018236612.751,-22443119669.946625,3325370954219.418
4.921259985,-685695567234.6768,-22414549238.303772,3304977988787.8906
4.926036651,-684362592894.6211,-22385479715.657013,3284603948303.7344
4.93081337,-683019367990.6426,-22355913992.221344,3264249263066.785
4.935590037,-681665947046.043,-22325854971.837036,3243914360428.414
4.940366703,-680302384726.3291,-22295305572.29904,3223599664810.4062
4.945149556,-678928735855.8887,-22264268725.66977,3203305597722.9414
4.949926223,-677545055434.3633,-22232747378.5744,3183032577781.715
4.954702889,-676151398652.6982,-22200744492.478027,3162781020724.2266
4.959479608,-674747820908.8428,-22168263043.943726,3142551339425.2656
4.964256275,-673334377823.0713,-22135306024.871033,3122343943911.6055
4.969032941,-671911125252.9004,-22101876442.714325,3102159241375.9414
4.973809608,-670478119307.582,-22067977320.680725,3081997636190.1055
4.978586327,-669035416362.1533,-22033611697.907043,3061859529917.6016
4.983362993,-667583073071.0322,-21998782629.615265,3041745321325.4844
4.98813966,-666121146381.1455,-21963493187.246033,3021655406395.5938
4.992916327,-664649693544.5693,-21927746458.56961,3001590178335.1445
4.997692993,-663168772130.666,-21891545547.773834,2981550027586.676
5.002469712,-661678440037.6963,-21854893575.528778,2961535341837.367
5.007246379,-660178755503.8896,-21817793679.027863,2941546506027.715
5.012023046,-658669777117.9648,-21780249012.00522,2921583902359.574
5.016799712,-657151563829.0977,-21742262744.72931,2901647910303.582
5.021576379,-655624174956.3398,-21703838063.9729,2881738906605.965
5.026353098,-654087670197.4922,-21664978172.959534,2861857265294.754
5.031129764,-652542109637.4287,-21625686291.286713,2842003357685.41
5.035906431,-650987553755.8711,-21585965654.825897,2822177552385.883
5.040683098,-649424063434.6074,-21545819515.599457,2802380215301.129
5.045459764,-647851699964.1543,-21505251141.634766,2782611709637.1133
5.050236431,-646270525049.8604,-21464263816.795654,2762872395904.324
5.05501315,-644680600817.4512,-21422860840.591736,2743162631920.824
5.059789816,-643081989818.0137,-21381045527.966248,2723482772814.879
5.064566483,-641474755032.419,-21338821209.06299,2703833171027.207
5.06934315,-639858959875.1816,-21296191228.97293,2684214176312.871
5.074119816,-638234668197.752,-21253158947.46106,2664626135742.801
5.078896535,-636601944291.2373,-21209727738.67392,2645069393704.953
5.083673202,-634960852888.5557,-21165900990.828247,2625544291905.1016
5.088449868,-633311459166.0244,-21121682105.881104,2606051169367.246
5.093226535,-631653828744.3906,-21077074499.181946,2586590362433.672
5.098003202,-629988027689.3174,-21032081599.106964,2567162204764.664
5.102779921,-628314122511.3418,-20986706846.676147,2547767027337.8906
5.107556587,-626632180165.3223,-20940953695.15338,2528405158447.4688
5.112333254,-624942268049.3906,-20894825609.630035,2509076923702.75
5.117109921,-623244454003.4258,-20848326066.592438,2489782646026.8516
5.121886587,-621538806307.0625,-20801458553.473694,2470522645654.965
5.126663306,-619825393677.2471,-20754226568.190247,2451297240132.4727
5.131439973,-618104285265.3506,-20706633618.66385,2432106744312.8906
5.136216639,-616375550653.8496,-20658683222.329742,2412951470355.6406
5.140993306,-614639259852.584,-20610378905.631714,2393831727723.676
5.145769973,-612895483294.6006,-20561724203.504547,2374747823180.9883
5.150546691,-611144291831.5928,-20512722658.84433,2355700060790.0273
5.155323358,-609385756728.9463,-20463377821.967316,2336688741909.0586
5.160100025,-607619949660.4062,-20413693250.058014,2317714165189.504
5.164876691,-605846942702.3779,-20363672506.607147,2298776626573.293
5.169653358,-604066808327.877,-20313319160.84012,2279876419290.258
5.174430077,-602279619400.1426,-20262636787.136566,2261013833855.6055
5.179206743,-600485449165.9248,-20211628964.441406,2242189158067.5117
5.18398341,-598684371248.4531,-20160299275.667908,2223402677004.9004
5.188760077,-596876459640.0957,-20108651307.093445,2204654673025.4727
5.193536743,-595061788694.7236,-20056688647.748596,2185945425764.0527
5.198313462,-593240433119.7959,-20004414888.800537,2167275212131.3027
5.203090129,-591412467968.1787,-19951833622.93167,2148644306312.875
5.207866796,-589577968629.7119,-19898948443.714417,2130052979769.0508
5.212643462,-587737010822.5342,-19845762944.983,2111501501234.8867
5.217420129,-585889670584.1729,-19792280720.203156,2092990136720.8945
5.222196848,-584036024262.3994,-19738505361.840576,2074519149514.2832
5.226973514,-582176148505.8555,-19684440460.729095,2056088800180.793
5.231750181,-580310120254.456,-19630089605.439392,2037699346567.125
5.236526848,-578438016729.5771,-19575456381.64923,2019351043803.9512
5.241303514,-576559915424.0352,-19520544371.516235,2001044144309.4824
5.246080233,-574675894091.8633,-19465357153.05429,1982778897793.5723
5.2508569,-572786030737.8906,-19409898299.514435,1964555551262.3438
5.255633566,-570890403607.1318,-19354171378.770966,1946374349023.33
5.260410233,-568989091173.9941,-19298179952.71344,1928235532691.125
5.2651869,-567082172131.3096,-19241927576.645264,1910139341193.543
5.269963618,-565169725379.2021,-19185417798.689484,1892086010778.293
5.274740285,-563251830013.7998,-19128654159.202423,1874075775020.1504
5.279516952,-561328565315.8018,-19071640190.19577,1856108864828.6133
5.284293618,-559400010738.9082,-19014379414.76767,1838185508456.0273
5.289070285,-557466245898.1211,-18956875346.543396,1820305931506.1562
5.293847004,-555527350557.9307,-18899131489.12619,1802470356943.162
5.298623671,-553583404620.395,-18841151335.558838,1784679005100.9688
5.303400337,-551634488113.1216,-18782938367.7966,1766932093692.9824
5.308177004,-549680681177.1616,-18724496056.1922,1749229837822.1367
5.312953723,-547722064054.8296,-18665827858.993317,1731572449991.2383
5.317730389,-545758717077.45605,-18606937221.852997,1713960140113.5918
5.322507056,-543790720653.084,-18547827577.353333,1696393115523.8926
5.327283723,-541818155254.11865,-18488502344.542633,1678871580989.3906
5.332060389,-539841101404.9448,-18428964928.48636,1661395738721.3203
5.336837108,-537859639669.51807,-18369218719.83197,1643965788386.5898
5.341613775,-535873850638.94385,-18309267094.38788,1626581927119.707
5.346390441,-533883814919.0581,-18249113412.716614,1609244349534.92
5.351167108,-531889613118.01416,-18188761019.74237,1591953247738.5508
5.355943775,-529891325833.88086,-18128213244.373108,1574708811341.504
5.360720493,-527889033642.25244,-18067473399.1373,1557511227471.9277
5.36549716,-525882817083.87305,-18006544779.835358,1540360680788.0137
5.370273827,-523872756652.2754,-17945430665.205536,1523257353490.9219
5.375050493,-521858932781.4346,-17884134316.604095,1506201425337.834
5.37982716,-519841425833.43945,-17822658977.699707,1489193073655.1328
5.384603879,-517820316086.18164,-17761007874.1821,1472232473351.713
