Time (s),Acceleration x (m/s^2),Acceleration y (m/s^2),Acceleration z (m/s^2)
6.002698476,-0.3792321956317946,1.636736111118819,-1.1285033506911468
6.007698476,0.8489581898047919,0.622502761580234,0.661653299790662
6.012698509,2.0921222371678,-0.4578760887855445,2.4291420533359824
6.017698542,3.346656584863044,-1.6338975347759954,4.143544146528642
6.022698542,4.607178827286993,-2.9301606704053684,5.774645851417228
6.027698542,5.865982752300632,-4.364330383451452,7.292862872022018
6.032698508,7.112657199732089,-5.945462553857079,8.669755141829853
6.037698508,8.333905548005545,-7.672788141201931,9.878636645360643
6.042698508,9.513590268190026,-9.535029171244636,10.895272688579752
6.047698541,10.6330125279643,-11.51029086737479,11.698643894265789
6.052698541,11.67142128626912,-13.566542563394881,12.271743215711734
6.057698541,12.606730629221703,-15.662667269964514,12.602360709116262
6.062698541,13.416409293481944,-17.75002773995408,12.683802135853748
6.067698541,14.078493458421601,-19.774467588610896,12.515483269076935
6.072698541,14.572663946245266,-21.678641431677068,12.103343403135046
6.077698507,14.88132280439674,-23.404549828316473,11.46002949103925
6.082698507,14.99060253081198,-24.896144340413276,10.604815787769432
6.087698873,14.89124431158612,-26.10186594225379,9.563241053231872
6.092698906,14.579289473277576,-26.976986350168946,8.366464090925676
6.097698906,14.056540245422866,-27.485635904206163,7.0503566787690914
6.102698906,13.330760725915086,-27.602422114355363,5.6543692490417445
6.107698872,12.415605204064157,-27.313568125865924,4.220217954677428
6.112698838,11.330277275084613,-26.61752818835853,2.790451428277115
6.117698804,10.098938251653534,-25.525065773520712,1.4069613730029114
6.122698804,8.749896365945038,-24.058807516557337,0.1095031756269966
6.127698804,7.314618626255897,-22.252311198887135,-1.0657087413379993
6.132698837,5.826614680666364,-20.14870741744346,-2.0872707179439183
6.13769887,4.320246565978638,-17.798991601348177,-2.929671962243454
6.142698903,2.8295198364411505,-15.260055158570703,-3.5741455254357426
6.147698903,1.3869104329984019,-12.592551581973327,-4.009255696304825
6.152698903,0.0222780170892765,-9.858695406808835,-4.231201351319295
6.157698869,-1.238089327950131,-7.120089316467149,-4.2438271986796545
6.162698869,-2.3722617504995895,-4.435667955750931,-4.058347109927818
6.167698869,-3.363257362515816,-1.8598367861348777,-3.6927953260699318
6.172698902,-4.199416685050419,0.5591286486837772,-3.1712318055069653
6.177698902,-4.874553788858756,2.7803725931769057,-2.5227369762569594
6.182698902,-5.387886414900238,4.771403696737887,-1.780238382806975
6.187698868,-5.743757157789519,6.508676432401921,-0.9792169928784703
6.192698834,-5.951166655682522,7.977807488393688,-0.15634416286636726
6.1976988,-6.0231472710196,9.173440454861346,0.6518985461788689
6.2026988,-5.97601166161755,10.098785771891404,1.410565281020253
6.207698833,-5.828514718502049,10.764874594415142,2.0875087165258623
6.212698866,-5.600969474022683,11.189574621931898,2.6545152155400458
6.217698899,-5.3143577467783825,11.396422801817481,3.0882734543412207
6.222698899,-4.989474564244491,11.41333402085555,3.37114453964817
6.227698899,-4.646141947178812,11.271246434623862,3.491709491591155
6.232698865,-4.3025226811328094,11.002763032724548,3.445078491111357
6.237698498,-3.9745585275102746,10.640845574099783,3.2329552080495296
6.242698498,-3.6755502710030314,10.217611404573525,2.8634585535638593
6.247698531,-3.4158894229322687,9.763276209251204,2.350713053051882
6.252698564,-3.2029436786077095,9.305276829887772,1.7142274235530603
6.257698564,-3.0410907386667976,8.867598303309954,0.9780885599554396
6.262698564,-2.9318882037499066,8.470318682126193,0.17000467355238175
6.267698564,-2.8743612463509716,8.129374416181363,-0.6797635233139613
6.272698564,-2.865384898240744,7.8565385237703165,-1.5395412080855662
6.277698564,-2.900134242924386,7.659593865253417,-2.3774034319976334
6.28269853,-2.9725736784748715,7.542674920721646,-3.1623211112254417
6.28769853,-3.0759557616267754,7.50674390861353,-3.8652478238113686
6.29269853,-3.2033009475718908,7.550161168825148,-4.4601104192666226
6.297698563,-3.347831737777688,7.669305737076394,-4.924672160317018
6.302698563,-3.503338223096382,7.859200179577955,-5.241243886251455
6.307698563,-3.6644565865735297,8.11409421707206,-5.397226002752194
6.312698529,-3.8268475795367203,8.427964579421513,-5.385471472261205
6.317698529,-3.9872680351229666,8.794893975622603,-5.204466998103558
6.322698529,-4.143534846963742,9.209300023821717,-4.858335964513313
6.327698562,-4.294387228112033,9.665995277743745,-4.356672189372027
6.332698562,-4.439259189087183,10.160071688102452,-3.7142179940073516
6.337698562,-4.577979742771081,10.686616272590506,-2.950403381900364
6.342698562,-4.710423063487242,11.240278551701135,-2.0887652216041976
6.347698562,-4.836134416549134,11.814723442426704,-1.1562663302028546
6.352698562,-4.953959890099827,12.402014784492621,-0.1825344316982495
6.357698528,-5.06170862403615,12.991983593626678,0.8009596275291079
6.362698528,-5.155875242866993,13.571640751100228,1.761765992158087
6.367698528,-5.231447550630409,14.124695621088602,2.6673448666083854
6.372698561,-5.281820316725436,14.631239747992316,3.48596400023968
6.377698594,-5.298830341510609,15.067648285518978,4.18758847228284
6.382698594,-5.27292119610915,15.406741367412168,4.744746579497229
6.38769856,-5.193438416936682,15.618233722254216,5.133355102496275
6.392698526,-5.049047901849884,15.669484170981276,5.333486433003085
6.397698492,-4.828262246456764,15.52653812301444,5.330059231272408
6.402698458,-4.5200522406061365,15.155436835047034,5.113433702284548
6.407698458,-4.114514172883776,14.523748121877084,4.679892448522229
6.412698491,-3.603558386957815,13.602255541228887,4.031988349003721
6.417698524,-2.9815810592316816,12.3667279153004,3.1787421605432575
6.422698557,-2.2460796974829123,10.799679417271262,2.1356746305893357
6.427698557,-1.398173561843339,8.89202321525774,0.9246609022547229
6.432698557,-0.4429931311204387,6.644519506169475,-0.42640111083940446
6.437698657,0.6100921881754107,4.068922122621753,-1.8841119335533136
6.442698657,1.7474318616712388,1.18873691794846,-3.4102793157748246
6.447698657,2.9512525392069087,-1.9604803090088956,-4.962806377876373
6.45269869,4.200021812071906,-5.331338943790333,-6.496744235677522
6.45769869,5.469011410997228,-8.865370368783681,-7.9654873781012885
6.46269869,6.731042559145706,-12.494327875137346,-9.322083340772338
6.467698656,7.957385158066264,-16.142002009716773,-10.520621942868257
6.472698622,9.118772350722873,-19.726494370128318,-11.517663894257245
6.477698588,10.186483484792609,-23.162865105576323,-12.273664300932346
6.482698588,11.133442311990406,-26.366045069139876,-12.754343826428384
6.487698621,11.935274068118861,-29.253884494575413,-12.931959245671221
6.492698654,12.571265402049859,-31.75019778037805,-12.786425977614243
6.497698687,13.025175233467785,-33.7876595555913,-12.306247907605375
6.50269872,13.285852455772368,-35.310411180501866,-11.489214317029068
6.50769872,13.347627509582468,-36.27624905267686,-10.34282986449332
6.51269802,13.210458404300566,-36.65828579123161,-8.884451102769868
6.517697986,12.879826640736667,-36.44600130376246,-7.141111741437494
6.522697986,12.366393427684716,-35.64563125649941,-5.1490285541256515
6.527697319,11.685440365359838,-34.279873665989435,-2.95279028082087
6.532696452,10.856130348056682,-32.386928208306756,-0.6042429084552132
6.537695552,9.900633052660961,-30.018915464235597,1.8389038608820318
6.542694885,8.843164577921083,-27.23975295106065,4.3147125557774215
6.547693985,7.708992443141033,-24.12258998569631,6.758848448240075
6.552693085,6.5234553936245305,-20.746923062331746,9.106545875556243
6.557692185,5.3110427036159376,-17.195526721727322,11.294641790937716
6.562691251,4.094570575925085,-13.551341338240181,13.26360008113211
6.567690584,2.894484718218662,-9.894458613456212,14.959445552488855
6.572689684,1.7283093023654283,-6.299337913276886,16.335526674053547
6.577689717,0.6102542812812276,-2.8323724177353435,17.35403237145488
6.582689517,-0.44901394628487834,0.45009565348944336,17.987200441300118
6.58768955,-1.4424391905969773,3.503235370908212,18.21817214068353
6.592689516,-2.366484755217875,6.294614168427528,18.04146681899147
6.597689516,-3.220894716833703,8.804490558008993,17.463069503046363
6.602689516,-4.008320381640819,11.02551888035933,16.50014110617129
6.607689549,-4.733828854149475,12.961898619441694,15.18037442798927
6.612689549,-5.40431437597909,14.62802466942271,13.541029425953246
6.617689149,-6.027836682520498,16.0467158255707,11.627689177187955
6.622688582,-6.612913876467486,17.247116080996907,9.492784452457917
6.627688582,-7.167799939773588,18.262376474493923,7.193940375212806
6.632688582,-7.699778696647602,19.127233690311865,4.79220302725099
6.637688548,-8.214506561735579,19.875604907414733,2.350206458804612
6.642688514,-8.715435621428986,20.538316313825117,-0.06965920098121926
6.647688514,-9.203346449415303,21.141075314553444,-2.407020161245698
6.652688514,-9.676016556644932,21.70278412385418,-4.605178260607368
6.657688547,-10.128045576906265,22.23427573182921,-6.612610181141243
6.662689213,-10.550852302588293,22.737532941823883,-8.384267796569166
6.667689213,-10.93285168254073,23.20542819726534,-9.882649932193102
6.672689179,-11.25981210937856,23.621997262205017,-11.07862523821455
6.677689845,-11.515385047974082,23.963234557327723,-11.951995147115557
6.682690745,-11.681790625748366,24.198373174487994,-12.491794523413738
6.687691678,-11.740634585760871,24.291589375371966,-12.696335186195828
6.692692344,-11.673824385309148,24.204050744827825,-12.57300364867049
6.697693244,-11.464545611131825,23.89621003539274,-12.13782903221488
6.702694144,-11.098254682282851,23.33023387965705,-11.414840320421524
6.707695044,-10.563640399415267,22.47244755933816,-10.435234309623617
6.71269531,-9.853505589849759,21.295674312156898,-9.236377253829106
6.717695943,-8.965521119822395,19.78135043839466,-7.860664688899753
6.722696843,-7.9028080206222615,17.921305736891867,-6.354265515296402
6.727696843,-6.674309403673577,15.71911233255643,-4.765778251158514
6.732697076,-5.294922089780038,13.190923305429283,-3.1448294451082552
6.737696909,-3.7853681887897435,10.365745026323971,-1.5406464515683511
6.742696909,-2.1717988527832186,7.285112874827921,-0.000638920376397144
6.747696875,-0.4851355811399682,4.002168014783406,1.4309747996418212
6.752696841,1.2398318486561417,0.5801619389546884,2.7144588128146014
6.757696807,2.965558249570749,-2.9095557344359086,3.815730212807178
6.762696807,4.65302162365756,-6.389983611709566,4.707371021597272
6.767697207,6.263111788011622,-9.781242397299112,5.369444714470625
6.772697807,7.758065393467014,-13.003550217580026,5.790082860370984
6.77769784,9.102879188939772,-15.980259895277607,5.965811365213436
6.782697873,10.266632749342147,-18.64081260872201,5.90159214637371
6.787697873,11.223655284107949,-20.923464681802287,5.610565605105554
6.792697873,11.954478510822442,-22.777655336728,5.113492131095675
6.797697839,12.44652864887133,-24.16590263302271,4.437906032479615
6.802697839,12.69452475776806,-25.065141136379125,3.617010866220918
6.807697839,12.70056687196602,-25.467445997581578,2.6883592606697433
6.812697872,12.473914336372516,-25.38012154004755,1.692371640949865
6.817697872,12.03047110463964,-24.8251655906963,0.6707561029107393
6.822697872,11.392009444023461,-23.838151409905926,-0.3351041668831381
6.827698138,10.585175714634534,-22.466595492123297,-1.2857289543839325
6.832698104,9.640331142042902,-20.767900609988704,-2.145020307013951
6.83769807,8.590286488356549,-18.806978661317196,-2.8815843740945906
6.84269807,7.468992153695804,-16.653666957906758,-3.4698450782994517
6.847698103,6.310244592188864,-14.380054701528858,-3.890908682638807
6.852698136,5.146466247746189,-12.057833924018242,-4.133149395533855
6.857698169,4.0076098850556034,-9.755781735380298,-4.1924980154256835
6.862698802,2.9202296992995227,-7.537469095125446,-4.072427775252737
6.867698802,1.9067514939337813,-5.459276372302057,-3.7836435549065643
6.872698768,0.9849631094571218,-3.568778619512282,-3.343492065596037
6.877698734,0.16773475468089832,-1.9035446946475374,-2.775121087579434
6.882698734,-0.5370325005002523,-0.49037502457791127,-2.106425016277919
6.887698767,-1.1262425386116286,0.6550162517366984,-1.3688215428609227
6.8926988,-1.6012463681777032,1.5278870652010186,-0.5959100192093965
6.8976988,-1.967320751997954,2.133949835243249,0.17793424916939382
6.9026988,-2.2330195645448936,2.4884935050321944,0.9189739859186178
6.9076988,-2.409438254966215,2.6151999145732243,1.5954770241490148
6.9126988,-2.5094337007250647,2.5447181772617387,2.1789840416467516
6.9176988,-2.5468414351237714,2.3130667185817226,2.645429225622255
6.922698766,-2.5357298001445114,1.959935633805544,2.976072630352881
6.927698766,-2.489726191910373,1.5269620791672094,3.1582109774865375
6.932698766,-2.421444503817457,1.0560486656905537,3.185642808180152
6.937698799,-2.342035495243871,0.5877894823870473,3.058873860395033
6.942698799,-2.26087355939208,0.16006069708370285,2.785058903437221
6.947698799,-2.1853847240326,-0.19317701938278872,2.377686564531833
6.952698765,-2.121012210169668,-0.4428283572339356,1.8560234496108772
6.957698765,-2.0713079977123448,-0.5653422079678422,1.2443426183042294
6.962698765,-2.0381320498989877,-0.5431094639167285,0.5709688081139669
6.967698798,-2.021935487290985,-0.36458322923288594,-0.13282157490090687
6.972698798,-2.02210032922404,-0.024137971122983434,-0.8340039003453192
6.977698498,-2.037306573452982,0.4783037347572319,-1.4990684299711183
6.982698498,-2.065897384791591,1.1378375656321706,-2.095299063036755
6.987698498,-2.1062149170785194,1.945288937169902,-2.592024863940062
6.992698498,-2.156882599308137,2.8880153438747698,-2.9618039421128786
6.997698464,-2.2170142902717753,3.9507417878110758,-3.1815026061213785
7.00269843,-2.2863362118962467,5.116371175424818,-3.2332367399904904
7.00769843,-2.3652136727699773,6.366714646861233,-3.1051468660788673
7.012698463,-2.454580988498468,7.68309350278572,-2.791983272160193
7.017698496,-2.5557794362061923,9.04677467037002,-2.295482845097287
7.022698496,-2.6703143088359558,10.439215143009362,-1.624524811879776
7.027698496,-2.7995479100117024,11.842106806414614,-0.7950583445685921
7.032698462,-2.9443503674476905,13.23723044967491,0.17019918228998618
7.037698428,-3.1047341281675127,14.606145227028048,1.242288703109293
7.042698394,-3.2795006199824908,15.929755956921058,2.3867505084535625
7.047698394,-3.465928560220619,17.187814059470494,3.564564137345696
7.052698427,-3.659532604520724,18.358417497269404,4.733266197258486
7.05769846,-3.8539184208046837,19.417579962997152,5.848220218292823
7.062698493,-4.040755928332198,20.338939256816573,6.8640079459182
7.067698493,-4.209886531158993,21.093669159028583,7.735907090636969
7.072698493,-4.34957294210006,21.65064830242234,8.42141655529702
7.077698459,-4.446891949695269,21.97692409703841,8.881786659364668
7.082698492,-4.488261613911563,22.038490504588196,9.08350902076437
7.087698492,-4.4600853406162715,21.80137653700287,8.999718730021335
7.092698525,-4.349486571091085,21.23301910449888,8.611460499385224
7.097698525,-4.145099919312985,20.30387070965162,7.908770875750017
7.102698525,-3.8378779641422245,18.989170954894885,6.89153064416406
7.107698491,-3.421868012899019,17.27079237439885,5.570045390368406
7.112698457,-2.8949104412794724,15.139057119393108,3.9653178558082876
7.117698423,-2.2592100713551155,12.594412726314337,2.108983109366207
7.122698423,-1.5217347513720472,9.648853458534328,0.04288652805290454
7.127698423,-0.6944009710903818,6.3269789967212855,-2.181705037099991
7.132698456,0.20598506843005646,2.666594570718078,-4.505256901333551
7.137698489,1.1580512420331655,-1.2812244518811522,-6.86147030056296
7.142698522,2.136454898844568,-5.452655802577586,-9.179108106779253
7.147698522,3.112741339979675,-9.772264339199648,-11.384100500649367
7.152698522,4.056440553322064,-14.154737361598402,-13.401874866674198
7.157698488,4.936360964921521,-18.507177826191928,-15.159841191722997
7.162698488,5.722023416840883,-22.731878709953033,-16.58995275141107
7.167698488,6.385164987287003,-26.729471033317036,-17.631252688822343
7.172698521,6.9012317758247805,-30.40231203038499,-18.23231104500842
7.177697687,7.250773514479808,-33.65796058336282,-18.35345455735178
7.182697687,7.42065182958449,-36.41257588487437,-17.96869350849326
7.187697687,7.404978891227199,-38.59407341613161,-17.067256215117514
7.192697687,7.2057143757996505,-40.144880195994496,-15.654652280031092
7.197697687,6.83286596619977,-41.0241486940697,-13.753200178073495
7.202697653,6.304261238611711,-41.20931494713094,-11.401972621527658
7.207697653,5.6448852262813505,-40.69691967816492,-8.656133818383832
7.212697653,4.885806058377179,-39.50264939651409,-5.5856654205738305
7.217697686,4.062738375409966,-37.66059507529347,-2.2735017684829795
7.222697686,3.214318346406802,-35.22176655545323,1.1868809593671803
7.227697686,2.3801831177652866,-32.25193888080094,4.69435375400558
7.232697619,1.5989601047292068,-28.828940059256144,8.143412082143664
7.237697585,0.9062770659458736,-25.039516400347136,11.42773175260398
7.242697551,0.3329023580744228,-20.975930302890898,14.443876416252097
7.247697551,-0.09688337549439699,-16.732455437054373,17.095016012113124
7.252697551,-0.3665967412014572,-12.401935436680583,19.2945060392526
7.257697584,-0.4684737397241439,-8.072564634664372,20.969173845046804
7.262697617,-0.40395850433874964,-3.825033466197886,22.06216255148605
7.26769765,-0.18373787520859683,0.2698422759417122,22.53519826947285
7.27269765,0.17267321273848563,4.152918569064421,22.370171936872506
7.27769765,0.6377672612192863,7.77788981640263,21.569960033296816
7.282697616,1.1772539392959476,11.111801786581164,20.1584444852855
7.287697616,1.7515845105512218,14.134919655317955,18.179729659172416
7.292697616,2.3177236155469503,16.83998895831893,15.69659291957998
7.297697649,2.831096410627225,19.230952175270904,12.788241772918441
7.302697649,3.2476356742565704,21.32120407335765,9.547479900734645
7.307697649,3.5258504074290564,23.131485046440265,6.077403429682328
7.312697715,3.6288350698184604,24.68752393495883,2.487759360132925
7.317697681,3.5261380624689718,26.01755045844912,-1.1088955514039496
7.322697647,3.1954104535952315,27.14980236807091,-4.60109223908063
7.32769848,2.6237617214778446,28.110153271059442,-7.882257104605047
7.332698513,1.8087583134645806,28.919982962650618,-10.854286436602766
7.337698546,0.7590126691383408,29.594402207009253,-13.4307536264743
7.342698579,-0.5056753246944219,30.140927986814848,-15.539632877080226
7.347698579,-1.954645949779297,30.558683818525736,-17.125446693302045
7.352698579,-3.5471794700500845,30.838173905412894,-18.15077190815251
7.357698545,-5.233751649197169,30.961651055604808,-18.59706829992627
7.362698545,-6.957708439480019,30.90406792143965,-18.464823177736122
7.367698545,-8.65730383188716,30.63457072820455,-17.773033065377977
7.372698578,-10.2680269702085,30.118465717329222,-16.55806851327172
7.377698611,-11.725129300378134,29.319562426556942,-14.871989173872997
7.382698611,-12.966250592909336,28.20277598768487,-12.780392902714734
7.387698611,-13.934034867778486,26.73685404346908,-10.359894227608377
7.392698611,-14.578624180713144,24.89708365433457,-7.695333687898896
7.397698611,-14.85992028128818,22.66783032196245,-4.876820509513678
7.402698611,-14.749511325618862,20.044765224442077,-1.99670797305681
7.407698577,-14.232172725237781,17.03664779984021,0.8534046697725097
7.412698577,-13.3068672265394,13.66654855377285,3.585556328631732
7.417698577,-11.98718880150002,9.972420841815843,6.118113595747036
7.42269861,-10.301217263668383,6.006959609145512,8.37819211279908
7.42769861,-8.290775000805361,1.836718589894489,10.303744155520988
7.43269861,-6.010102964172038,-2.459506097057724,11.845255888413849
7.437698576,-3.5239990285012377,-6.792980309159872,12.967008144643277
7.442698542,-0.905486907721542,-11.067941406509098,13.647866361252296
