Time (s),Acceleration x (m/s^2),Acceleration y (m/s^2),Acceleration z (m/s^2)
6.001114494,-0.4592574842755033,-2.2387521792264726,0.5335166493880115
6.005868817,-1.170025519593854,-2.1783085576515475,2.1780755508866907
6.01062314,-1.8877906812834402,-2.093100317305205,3.7022438697662605
6.015377463,-2.5980111883758723,-1.978550519642404,5.065772077093393
6.020131786,-3.285883665751646,-1.8304325964117558,6.232847010930479
6.024886056,-3.936661029722123,-1.6449792152161906,7.1732179306927915
6.029640379,-4.535963042310724,-1.418983103569783,7.863191577906111
6.034394702,-5.070073003509599,-1.1498881076388892,8.286459858690112
6.039149025,-5.526215939204173,-0.83586899725274,8.434726517747848
6.043903348,-5.8928154895845255,-0.47589877918402906,8.308103237874711
6.048657671,-6.159728240431557,-0.06980253543857629,7.9152509453071245
6.053411994,-6.3184552741450695,0.38170296277331794,7.273248733208937
6.058166317,-6.362331162858134,0.8769844311273856,6.407180728233053
6.06292064,-6.286690493697759,1.4134824846596201,5.349440335085191
6.067674963,-6.089011390364834,1.9877176649231207,4.13876140006951
6.072429286,-5.769034509183487,2.5953124087994466,2.81899662185572
6.077183608,-5.328854800837191,3.231029205662568,1.4376746042964939
6.081937879,-4.772982106255031,3.888825034452208,0.04437782949673208
6.086692202,-4.1083655548648705,4.5619219064780046,-1.3110059748303902
6.091446525,-3.344375899443809,5.24289294577005,-2.5800976236694777
6.096200848,-2.492739479442111,5.923762919067269,-3.717836754438925
6.100955171,-1.567417563080488,6.596121504664665,-4.684215001817349
6.105709494,-0.5844254752572,7.251246906712502,-5.445856288393388
6.110463817,0.43841274085420917,7.880236743120121,-5.977369435346419
6.11521814,1.4817762881206409,8.474142544867474,-6.262402871940188
6.119972463,2.525225483508861,9.024103810411129,-6.294339887586886
6.124726786,3.547641158396203,9.52147749281164,-6.07658612922007
6.129481108,4.527716946724649,9.957959182236799,-5.622419073755605
6.134235431,5.444491251476213,10.325693133819495,-4.954391428883214
6.138989754,6.2779013317736565,10.617369618082153,-4.103305427770882
6.143744077,7.009338399021334,10.826309680424286,-3.106800859112363
6.148498348,7.622180356858695,10.946539086487379,-2.007624325767281
6.153252671,8.102278212239383,10.972854798700919,-0.8516685318320127
6.158006994,8.438373391842653,10.900888586721884,0.314113740136117
6.162761317,8.62242622471681,10.727173136558209,1.4438077187734573
6.16751564,8.649840535642145,10.449216088305613,2.4945334028850317
6.172269963,8.519575270819898,10.065586584044041,3.428235971573418
6.177024286,8.234140778060262,9.57601698481225,4.213180772196684
6.181778608,7.799484079146003,8.981519435514082,4.825085541484023
6.186532931,7.224773494781256,8.284513193636643,5.247847819079046
6.191287254,6.52209774980948,7.4889545832889155,5.473852112386894
6.196041577,5.706097849083139,6.600457664524136,5.503867174669379
6.2007959,4.793551428945116,5.626390751031857,5.346567018608061
6.205550223,3.802928999237966,4.575932198584566,5.017728681399746
6.210304546,2.753939710540255,3.460068730265703,4.539174333191298
6.215058817,1.6670813372366031,2.2915211050566615,3.937534209444925
6.21981314,0.5632054213797112,1.084585108251102,3.2429089911847955
6.224567463,-0.5368956055318795,-0.1451195715812985,2.487504995096547
6.229321786,-1.61287643952083,-1.3809942202891408,1.704304038791448
6.234076108,-2.6452022378638267,-2.6058945019144595,0.9258154528610562
6.238830431,-3.615489143252904,-3.802639431283245,0.182944032689256
6.243584754,-4.506824117149811,-4.954574845937613,-0.4960034154029852
6.248339077,-5.304065246317363,-6.04616252618611,-1.086158861898642
6.2530934,-5.994121903269463,-7.063559528540966,-1.5667736779961223
6.257847723,-6.566211883066757,-7.995147949136914,-1.9217365335771357
6.262602046,-7.0120901850344035,-8.831974390556207,-2.13992954838404
6.267356369,-7.326241669229268,-9.568061850151874,-2.2154261176295162
6.272110692,-7.506027659163064,-10.200564844500917,-2.147535500545434
6.276865015,-7.5517751541284115,-10.729750556512357,-1.9407004370908476
6.281619338,-7.466797239566005,-11.158803037645743,-1.6042550036064323
6.286373661,-7.257334898086583,-11.493462163526909,-1.1520508708895254
6.291127931,-6.932413629258046,-11.741522450725034,-0.60196125683349
6.295882254,-6.503612632195094,-11.912227622975529,0.024726709714126934
6.300636577,-5.984749224989109,-12.01560396380395,0.7040186229087941
6.3053909,-5.3914861383559165,-12.061778503768847,1.410003349363987
6.310145223,-4.740873881484657,-12.060327014095586,2.115709270847672
6.314899546,-4.050844181565852,-12.019692141629289,2.794004416774927
6.319653869,-3.3396732794684643,-11.946704677235173,3.4185150580773516
6.324408192,-2.6254354540813893,-11.846231907870198,3.964534131608684
6.329162515,-1.9254674951512816,-11.720967255956031,4.409888532743597
6.333916838,-1.2558640209469056,-11.571365830635383,4.735733238166726
6.338671161,-0.631021714307828,-11.395721799089165,4.927240680759859
6.343425483,-0.06324795175651443,-11.19037611264054,4.974155933225465
6.348179806,0.4375538470850509,-10.950037338303389,4.871192062068645
6.352934129,0.8641133104995748,-10.668194193369985,4.618245363841039
6.357688452,1.2119314457452466,-10.337595759581593,4.220416871594309
6.362442775,1.4793266193181975,-9.950774077663304,3.687834232165723
6.367197046,1.6673900006270128,-9.500583646252995,3.0352764795759395
6.371951369,1.7798553154474523,-8.980732996082104,2.281613037726485
6.376705692,1.8228902590254772,-8.38628472751925,1.4490771482527591
6.381460015,1.804818780909504,-7.714102014336264,0.5624024907472298
6.386214338,1.7357846577230334,-6.9632215289946995,-0.3521403350865732
6.390968661,1.6273674129887612,-6.135135075114394,-1.2677639909934826
6.395722983,1.49216187290233,-5.233965013584635,-2.1581926126818938
6.400477306,1.343332578040699,-4.266521940075513,-2.9986466983245053
6.405231629,1.1941539741320224,-3.242237095734908,-3.7667341023458594
6.409985952,1.0575468747369863,-2.172966696788595,-4.443201924563565
6.414740275,0.945621293611683,-1.072670661393126,-5.012514415336316
6.419494598,0.8692355909817532,0.043026143542979865,-5.463236361256901
6.424248921,0.8375821217892567,1.1573763331681386,-5.788217453484719
6.429003244,0.8578102610306768,2.2531368877897986,-5.984588024512608
6.433757567,0.9346987315399243,3.3132563329304867,-6.053587997179487
6.43851189,1.0703903480499182,4.321593857417816,-6.0002578548533565
6.443266213,1.2642032245182717,5.263638807430762,-5.833023007453766
6.448020536,1.5125326484513226,6.127197072044966,-5.563201942364907
6.452774806,1.8088567036806353,6.903010447166848,-5.204465178523826
6.457529129,2.1438560181174364,7.5852762340510385,-4.772267450539519
6.462283452,2.5056537195129778,8.17203709726812,-4.283270746910057
6.467037775,2.8801760737588067,8.665415494130466,-3.754771650131481
6.471792098,3.2516278329265047,9.071672641129574,-3.2041435303009806
6.476546421,3.603069627224448,9.401078781214776,-2.6483028743251893
6.481300744,3.917078407963369,9.667589170749496,-2.1032092639717535
6.486055067,4.176466504869311,9.888328379884681,-1.5834096426765987
6.49080939,4.365030641127284,10.082893842438592,-1.1016386934070617
6.495563713,4.468299409160714,10.272497766921353,-0.6684876399967153
6.500318036,4.47424627718752,10.478974229809838,-0.29215309964131564
6.505072358,4.373935144285797,10.723685249365921,0.021724464848063348
6.509826681,4.162066763712769,11.026365642748123,0.27012660450814246
6.514581004,3.8373970085528524,11.403951283401343,0.4526255523183678
6.519335327,3.4030019726007015,11.869438805554362,0.5712594258577002
6.52408965,2.8663702724120643,12.430826678010185,0.6303229363032932
6.528843973,2.2393095652316672,13.090187747799988,0.6360871695574222
6.533598296,1.5376620417050244,13.842921727756094,0.5964653272243416
6.538352619,0.7808322040649974,14.677232602663691,0.5206428981485379
6.54310689,-0.008860777913944065,15.573870527807914,0.4186904063143043
6.547861213,-0.8069848780994378,16.506170499322426,0.30117489617257776
6.552615536,-1.5879214953720269,17.44041093980767,0.17878329162515305
6.557369858,-2.325879106321221,18.336504486173528,0.06196743892193784
6.562124181,-2.9959513044286257,19.149020905082402,-0.03938241459533887
6.566878504,-3.5751722517687594,19.82852851422209,-0.11623146433488585
6.571632827,-4.043520745614827,20.32322617779369,-0.1606591767416287
6.57638715,-4.384824609642408,20.580823394071636,-0.16608209685077327
6.581141473,-4.587520029489662,20.550611802868318,-0.12744043463159127
6.585895796,-4.64522573778436,20.18565825726762,-0.04134852872371391
6.590650119,-4.557099467859242,19.4450380977969,0.09379089051602738
6.595404442,-4.327953555605012,18.296018137274302,0.277709296452372
6.600158765,-3.9681175619457254,16.71609283298618,0.5082333364567998
6.604913088,-3.4930478000886738,14.694774889626757,0.7812866702659171
6.609667411,-2.922696105829208,12.235043702815393,1.0909360846900857
6.614421733,-2.2806624806758267,9.354362043766079,1.4294859583929467
6.619176056,-1.593167754508916,6.0851833906699895,1.7876253876191848
6.623930379,-0.8878925558418951,2.4748892515277765,2.154631948335473
6.628684702,-0.19273708001628018,-1.4148826674786878,2.5186350741237673
6.633439025,0.46543807751204797,-5.509533158333867,2.8669403460434837
6.638193348,1.062026781555435,-9.723404326480592,3.186413646094809
6.642947619,1.5757847691232723,-13.962245454410994,3.4639211797088185
6.647701942,1.9897698338860497,-18.12616604890141,3.686817901032173
6.652456265,2.292061753634175,-22.112970603778077,3.8434729513821217
6.657210588,2.476219105094302,-25.82174310745418,3.9238163978284164
6.661964911,2.541443633967504,-29.15652802837495,3.9198868702999032
6.666719233,2.4924394368390645,-32.02994056895961,3.8263547425066227
6.671473556,2.338973146560646,-34.366534254319205,3.640990643115786
6.676227879,2.0951612345074286,-36.105759575027314,3.3650451587373067
6.680982202,1.7785295351046875,-37.20436359968616,3.003503917413835
6.685736525,1.408906087604571,-37.63810638917181,2.5651841713897676
6.690490848,1.007219622913595,-37.40270407493475,2.062645244126154
6.695245171,0.5942813791138459,-36.51394845298926,1.5118954958677389
6.699999494,0.18962702884306532,-35.00699634752423,0.9318917367410622
6.704753817,-0.18951132549795402,-32.934865979832175,0.34384186844264997
6.70950814,-0.5290449533317788,-30.366219127960555,-0.2296634940250884
6.714262463,-0.8186374035378717,-27.382544011169802,-0.7656509687676071
6.719016786,-1.0520573059218654,-24.074882045762273,-1.2418452811422
6.723771108,-1.2272677704182786,-20.540260223378155,-1.6377727468969105
6.728525431,-1.3462620126435825,-16.877999257714595,-1.935825513141327
6.733279754,-1.4146696252581048,-13.186066179966671,-2.122225485038577
6.738034077,-1.441169781320076,-9.557629746909763,-2.1878316541519105
6.7427884,-1.4367561744978379,-6.077959264974858,-2.1287427235003906
6.747542723,-1.4139035751677158,-2.8217838550493872,-1.9466577573918395
6.752297046,-1.3856876638840836,0.14879849011634438,-1.6489703275066585
6.757051369,-1.3649086131926975,2.7858027435852812,-1.2485855522942555
6.761805692,-1.3632651461098855,5.0562010151575105,-0.7634638144710528
6.766560015,-1.3906199839935718,6.942130434029742,-0.21590908155112667
6.771314286,-1.454390216047419,8.440493915590988,0.368367039421467
6.776068608,-1.5590876962169482,9.562007513523827,0.9613627527810276
6.780822931,-1.7060256190965952,10.329768440854588,1.5340327928541642
6.785577254,-1.8931984498246406,10.777433454035695,2.0576053188390984
6.790331577,-2.1153338515485034,10.947107778808777,2.5049060049970824
6.7950859,-2.364107560661117,10.887050038505034,2.851625594988291
6.799840223,-2.628505586964141,10.649298906825239,3.0774695686373863
6.804594546,-2.895312819064952,10.287322850812044,3.1671338957722104
6.809348869,-3.149703132086007,9.853785932481419,3.111058819525853
6.814103192,-3.375903373623448,9.398510906436742,2.9059228452235772
6.818857515,-3.5579020476109364,8.966706579618391,2.554851178191758
6.823611838,-3.680173020393467,8.597510421607756,2.0673262462061683
6.828366161,-3.728385045064295,8.32288055787762,1.4588020711438854
6.833120483,-3.69006925178183,8.166854332403991,0.7500384789110742
6.837874806,-3.5552188956222097,8.14517431138858,-0.033815196183368486
6.842629129,-3.3167984978815857,8.265267546595794,-0.8643447795719092
6.847383452,-2.971142963855643,8.526550645488403,-1.7111514632132414
6.852137775,-2.518231207200048,8.921022107470936,-2.543226304901257
6.856892098,-1.961823158102914,9.43409476203483,-3.3303520634419974
6.861646421,-1.3094536916859338,10.04561514888841,-4.044462694627952
6.866400744,-0.5722819095275515,10.7310133644957,-4.66089127111038
6.871155067,0.23520072524983474,11.462526219912487,-5.159440793440154
6.87590939,1.0955947169092954,12.210438405340984,-5.5252195775186665
6.880663713,1.989135402222838,12.944290600810481,-5.749194153230642
6.885417983,2.894335215077526,13.634009910826704,-5.828428323481036
6.890172306,3.7887012885814175,14.250926274469686,-5.765996762485511
6.894926629,4.649500111247425,14.768648037959416,-5.570583544900556
6.899681004,5.4545379095636175,15.163779958328494,-5.255797799408792
6.904435275,6.182923924428563,15.416476808106655,-4.839257852267926
6.909189598,6.815783964789248,15.510834825992761,-4.341509863518656
6.913943921,7.336893589853667,15.435130977316176,-3.7848557842046056
6.918698244,7.733203928446269,15.181925944450514,-3.1921679083727814
6.923452567,7.9952383563952525,14.748050676452666,-2.585763529249052
6.92820689,8.117344791999955,14.134498034050619,-1.9864040229715139
6.932961213,8.097795864932602,13.34624058563596,-1.4124692536748562
6.937715536,7.938737137350172,12.391993177086334,-0.8793418753795633
6.942469858,7.645991287551089,11.28393497000838,-0.39901830287335005
6.947224181,7.228733114975286,10.037400826369767,0.02005476820292368
6.951978504,6.699055929455378,8.670546864097247,0.37293605322085904
6.956732827,6.071454051674364,7.203990334799468,0.6579695381055203
6.96148715,5.362248622810382,5.66042022432236,0.876431216559662
6.966241473,4.588984636755886,4.064172580580975,1.0320917738322037
6.970995796,3.7698260545305073,2.4407637860760896,1.1307450003652184
6.975750119,2.922973116959399,0.8163758759306772,1.1797455945251483
6.980504442,2.0661218666363044,-0.7827094587273776,1.1875875076619133
6.985258765,1.2159810912490219,-2.33072731435871,1.1635383423273102
6.990013088,0.3878572141329389,-3.803089703817447,1.1173310246894772
6.994767411,-0.4046863399701283,-5.177075372022417,1.0589038701227282
6.999521733,-1.1500919100561002,-6.432527402798331,0.9981745314460087
7.004276056,-1.8389914604719229,-7.55252904054432,0.9448312868992323
7.009030379,-2.4643122401995914,-8.524021663237065,0.9081259502283725
7.013784702,-3.0213061831812458,-9.338324695073785,0.8966558924394246
7.018539025,-3.507505859685488,-9.991516726959606,0.9181277121494222
7.023293348,-3.9226104199941934,-10.484641269535619,0.9791012303664418
7.028047671,-4.268305601854732,-10.82370960264189,1.0847188544547242
7.032801994,-4.54802286683192,-11.019486157377642,1.2384311625610025
7.037556265,-4.766644432872261,-11.087056965565116,1.441734224975201
7.042310588,-4.930163435314963,-11.045196922993876,1.6939373820017478
7.047064911,-5.045311326035901,-10.915565208293604,1.991981833204054
7.051819233,-5.11916731935156,-10.721768912998533,2.3303304858060905
7.056573556,-5.158766670002813,-10.488342028703848,2.7009481115136436
7.061327879,-5.17072552577531,-10.239690219801567,3.0933879547487315
7.066082202,-5.160899990234869,-9.999051576499898,3.494996463604136
7.070836525,-5.134095933144104,-9.787520363368104,3.8912418382780785
7.075590848,-5.093844067149497,-9.623175321741153,4.266164906625568
7.080345171,-5.04225191717221,-9.520347025271818,4.602942927001415
7.085099494,-4.979940617481676,-9.48905077495881,4.884548840150663
7.089853817,-4.90607012216305,-9.534603144809758,5.094480811926541
7.09460814,-4.818451632351477,-9.657432047215064,5.217530198088557
7.099362463,-4.713741133429778,-9.853082435640832,5.2405508687001285
7.104116786,-4.587703251865046,-10.112412706012654,5.1531896083763415
7.108871108,-4.435530524726596,-10.421970583155957,4.948536360271817
7.113625431,-4.252199895434826,-10.76453181678904,4.623654542229595
7.118379754,-4.032846004550097,-11.119780385882198,4.17995553933765
7.123134077,-3.773129794493531,-11.46510512819856,3.6233876792133457
7.1278884,-3.4695812277111897,-11.776484722700511,2.964418352755523
7.132642723,-3.1198965959063267,-12.029430630607285,2.2177981893634406
7.137397046,-2.723173897233408,-12.199955804064288,1.4021079459441101
7.142151369,-2.280073830985745,-12.265535637102671,0.5391014977987125
7.146905692,-1.7928987465263324,-12.20602682807951,-0.3471286122629135
7.151660015,-1.2655870126119513,-12.004509720529946,-1.231123921434871
7.156414338,-0.7036254265764337,-11.648020532726468,-2.0871205006109412
7.161168661,-0.11388721999863244,-11.128141959347325,-2.890137519963836
7.165922983,0.4955922617235638,-10.441424221518497,-3.617029440786108
7.170677306,1.1158862958760944,-9.589613965986132,-4.247438459562924
7.175431629,1.7374753064459438,-8.579675479991527,-4.764592152456508
7.1801859,2.350553424267825,-7.423597222747596,-5.155906155772677
7.184940275,2.945324087218588,-6.137986172789574,-5.413370333508196
7.189694598,3.51226822078643,-4.743462363995959,-5.533715342401567
7.194448869,4.042372436900811,-3.2638756708397474,-5.518371656118221
7.199203192,4.5273093943144875,-1.7253758908016497,-5.373243521679085
7.203957515,4.959567424311947,-0.15537496941195292,-5.108326085117732
7.208711838,5.332531227784235,1.4185536447782128,-4.737195940852465
7.213466161,5.6405194404486885,2.9697894534778815,-4.276404769981941
7.218220483,5.878787801527722,4.4737424020858265,-3.7448036575429247
7.222974806,6.043508384591346,5.908843439672146,-3.162823143679498
7.227729129,6.13173589823495,7.257401408742797,-2.551731925298557
7.232483452,6.1413716399260325,8.506284978359558,-1.9328959250002073
7.237237775,6.07113454932693,9.64739564131167,-1.327059244916626
7.241992098,5.920547161949891,10.677906526316882,-0.753668834013452
7.246746421,5.6899421915459065,11.600251478485127,-0.2302646296261785
7.251500744,5.380492964719306,12.421859119258833,0.22804439175471916
7.256255067,4.994268019186774,13.15463705000632,0.6090008495799347
7.26100939,4.534307014448383,13.814221693362802,0.9035034961102419
7.265763713,4.004711980038673,14.419019179321193,1.1057885986886578
7.270518036,3.4107451785704077,14.98907190556363,1.2134873557292134
7.275272358,2.758922766819365,15.544793681173678,1.2275647494666302
7.280026681,2.057092152965386,16.10562345365387,1.1521509461198445
7.284781004,1.3144805057553246,16.688653263208987,0.9942811112634924
7.289535327,0.5417022443557217,17.307290003004187,0.7635628651268899
7.29428965,-0.24928549853404713,17.970012556987207,0.47179212083710204
7.299043973,-1.0452884968543297,18.67928576387373,0.1325374310835422
7.303798296,-1.8320484672925927,19.430690291394907,-0.23928972209678004
7.308552619,-2.5944864305971636,20.212322779870266,-0.6278654592862415
7.313306942,-3.3170153535762648,21.004513398533874,-1.0168764009558666
7.318061265,-3.983916802345245,21.779898165053552,-1.389930920706283
7.322815588,-4.57977213429069,22.503871059733832,-1.730958284475119
7.327569911,-5.089934829394323,23.13542636809942,-2.0245976004884736
7.332324233,-5.501027090652734,23.628385249383633,-2.2565796673377174
7.337078556,-5.801440948078151,23.932982860115608,-2.414104672537018
7.341832879,-5.981821885591337,23.99777419766754,-2.486217234483674
7.346587202,-6.035511608008498,23.77179898500173,-2.464177580300297
7.351341473,-5.958926158148387,23.206929243876658,-2.34182394830074
7.356095848,-5.75184639582907,22.260308556540057,-2.115916984522796
7.360850171,-5.417600050047762,20.896780256158813,-1.7864524574893195
7.365604494,-4.963118241011278,19.091193763057102,-1.3569245591376433
7.370358765,-4.398854478228328,16.830474787151694,-0.8345188623210186
