Time (s),Acceleration x (m/s^2),Acceleration y (m/s^2),Acceleration z (m/s^2)
10.00229594,5.228317261,-9.738788605,4.10608387
10.00705089,5.142175674,-9.906285286,4.484149456
10.01180584,5.197210789,-10.10728264,4.749752998
10.01656078,5.393422127,-10.33699417,4.871787071
10.02131573,5.749952793,-10.56191921,4.948357105
10.02607068,6.245266914,-10.71266651,5.082355499
10.03082563,6.88893652,-10.83709335,5.216353416
10.03558052,7.551748276,-10.86341476,5.264209747
10.04033547,8.121239662,-10.77009487,5.084748268
10.04509042,8.41077137,-10.58824062,4.677968502
10.04984537,8.51844883,-10.31785107,4.122833252
10.05460032,8.528019905,-10.10967541,3.433700562
10.05935526,8.585447311,-10.15035343,2.675175667
10.06411021,8.762516975,-10.48774147,1.557727575
10.06886516,9.509077072,-11.35633659,-8.700303078
10.07362011,10.51884842,-12.91406345,-23.47119713
10.07837506,10.67677498,-13.18206024,-15.68255997
10.08313,10.30588722,-12.72981644,-2.792423964
10.08788495,9.918250084,-12.1292181,2.65364027
10.0926399,9.49232769,-11.34197903,3.893122435
10.0973948,9.114261627,-10.59541893,3.838087559
10.10214974,8.846264839,-9.891928673,2.596212626
10.10690469,8.482556343,-9.238688469,0.2775674164
10.11165964,7.855636597,-8.638090134,-1.698904037
10.11641459,7.135396957,-8.161917686,-1.770688772
10.12116953,6.53958416,-7.881958008,-0.2440679073
10.12592448,6.02752018,-7.860422611,1.083948612
10.13067943,5.599205017,-8.08295536,1.670190215
10.13543438,5.221138954,-8.597412109,1.665404558
10.14018933,4.962714195,-9.410971642,1.270588875
10.14494427,4.768895626,-10.51884842,0.524028182
10.14969922,4.61814785,-11.87797165,-0.390030086
10.15445417,4.575077057,-13.46441269,-1.100698471
10.15920912,4.747360229,-15.0723896,-1.241874933
10.16396401,5.235496044,-16.60618973,-0.7776673436
10.16871896,5.467599869,-18.19741631,-0.2273181528
10.17347391,5.398207664,-19.71685791,0.1531406492
10.17822886,4.993820667,-21.46840477,0.2823530734
10.18298381,4.067798615,-23.5429821,0.3158525825
10.18773875,3.18006134,-25.35195541,0.366101861
10.1924937,2.100898266,-26.85464859,0.7968099117
10.19724865,0.6580262184,-28.11805916,1.942971945
10.2020036,-0.7776673436,-28.98426056,3.235096216
10.20675855,-2.478964329,-29.46282578,4.158725739
10.21151349,-4.42672205,-29.28097153,4.840680122
10.21626844,-6.104090691,-28.19462967,5.041677475
10.22102339,-7.056434155,-26.32344246,4.376472473
10.22577834,-8.216953278,-23.46162605,-2.868994236
10.23053323,-9.817750931,-19.56611061,-15.70888042
10.23528818,-8.994620323,-16.51765442,-12.70349503
10.24004313,-7.709674358,-15.12981796,-4.266402721
10.24479808,-6.977470875,-14.5196476,1.749153376
10.24955302,-6.360122681,-13.92862034,4.431507587
10.25430797,-5.637490273,-13.27538013,4.843072891
10.25906292,-4.766502857,-12.38046455,3.98165679
10.26381787,-3.617947817,-11.3635149,2.433500528
10.26857282,-2.603390932,-10.2723875,0.8279166222
10.27332776,-1.773081541,-9.133403778,-0.4785645306
10.27808271,-1.107876897,-8.068597794,-1.184447169
10.28283766,-0.4953143001,-7.020541668,-1.483550072
10.28759261,-0.007178467698,-6.008377552,-1.452443361
10.29234756,0.5144568682,-5.123033047,-1.399801254
10.2971025,1.308874011,-4.376472473,-1.339980721
10.3018574,2.060220242,-3.876372576,-1.225125194
10.30661235,2.754138947,-3.448057413,-1.014556766
10.3113673,3.237488985,-3.141776085,-0.7298108935
10.31612224,3.617947817,-2.859423161,-0.2847459018
10.32087719,3.943371773,-2.646461725,0.1627119333
10.32563214,4.10608387,-2.522035122,0.6723831892
10.33038709,4.07736969,-2.514856577,0.9499505758
10.33514203,3.895515203,-2.469393015,1.203589797
10.33989698,3.534198999,-2.447857618,1.452443361
10.34465193,2.962314367,-2.411965132,1.488335729
10.34940688,2.184647083,-2.481357098,1.411765337
10.35416183,1.256231904,-2.694318295,1.37587297
10.35891677,0.3493520916,-3.067598581,1.270588875
10.36367172,-0.4402793646,-3.538984776,1.227517962
10.36842667,-1.208375454,-4.010370731,1.265803218
10.37318162,-1.835294962,-4.445864677,1.299302697
10.37793656,-2.452643156,-4.747360229,1.292124271
10.38269146,-3.014956474,-4.883750916,1.284945726
10.38744641,-3.541377544,-4.922036171,1.239482164
10.39220136,-3.950550079,-4.857429981,1.234696507
10.3969563,-4.271188259,-4.737788677,1.217946768
10.40171125,-4.646861553,-4.610969067,1.112662554
10.4064662,-4.902893543,-4.469792843,0.9762716293
10.41122115,-5.32163763,-4.309473515,0.7058826685
10.4159761,-5.773880959,-4.17069006,0.4953143001
10.42073104,-6.111268997,-4.094119549,0.1698904037
10.42548599,-6.407979012,-4.055834293,-0.2416750938
10.43024094,-6.707081795,-4.079762459,-0.6699903607
10.43499589,-6.817151546,-4.127619267,-1.0863415
10.43975084,-6.800402164,-4.235296249,-1.418943882
10.44450578,-6.620940208,-4.395615101,-1.636690736
10.44926073,-6.465406895,-4.601397991,-1.978864312
10.45401568,-6.407979012,-4.823930264,-2.392822742
10.45877063,-6.166304111,-5.154139996,-2.775674343
10.46352552,-5.747560024,-5.544169903,-3.077169895
10.46828047,-4.651647091,-6.075376511,-3.366701365
10.47303542,-3.029313564,-6.496513367,-3.64426899
10.47779037,-1.495514154,-6.879364967,-4.383651257
10.48254532,-0.009571290575,-7.32203722,-6.453442574
10.48730026,1.560120344,-8.063812256,-11.33958626
10.49205521,2.952743053,-9.147761345,-16.63251114
10.49681016,4.584648132,-10.30827999,-18.31945038
10.50156511,6.783652306,-11.50469112,-16.50329781
10.50632006,9.724431038,-12.6053896,-10.99501991
10.511075,13.16530991,-13.0073843,-1.289731383
10.51582995,14.69193077,-12.29910851,12.38285732
10.5205849,15.40020657,-11.33001518,23.11945152
10.52533985,18.08256149,-11.5836544,26.06980324
10.5300948,21.97568321,-13.28255844,23.97847557
10.53484974,25.6510582,-15.58923912,17.20678711
10.53960469,27.66102982,-17.15653801,9.169296265
10.54435964,26.41197586,-17.29053688,3.330809116
10.54911453,24.96431923,-16.78565025,-0.2416750938
10.55386948,24.16032982,-15.75912952,-1.995614052
10.55862443,23.86362076,-14.5268259,-2.012363911
10.56337938,23.10030937,-13.10309696,-0.993021369
10.56813433,21.43969154,-11.51186943,0.3349951804
10.57288927,19.30050659,-9.879964828,1.500299811
10.57764422,16.74975777,-8.303094864,2.254039049
10.58239917,14.21575928,-6.771687984,2.471785784
10.58715412,11.35155106,-5.477170944,2.486142635
10.59190907,8.750552177,-4.350151539,2.476571321
10.59666401,6.570691109,-3.66101861,2.510071039
10.60141896,4.900500774,-3.505485058,2.311466694
10.60617391,4.235296249,-4.783252239,1.40697968
10.61092886,4.316651821,-7.611568928,-1.088734269
10.61568381,4.201796532,-11.63151073,-7.422535896
10.62043875,3.364308596,-15.83330727,-13.91665649
10.6251937,3.761517286,-18.49173355,-12.41635704
10.62994865,4.615755081,-19.73121643,-5.453242779
10.6347036,5.383851051,-20.52802467,1.383051515
10.63945849,5.508277893,-21.59283066,4.721039295
10.64421349,4.996213913,-22.44946289,4.340580463
10.64896839,4.213760853,-22.98066902,-1.076770186
10.65372334,3.460021496,-21.69333076,-10.49970531
10.65847828,1.887937069,-18.19980812,-8.20498848
10.66323323,0.2201396823,-15.08674717,-3.440878868
10.66798818,-0.9284151793,-13.0384903,-0.3493520916
10.67274313,-1.076770186,-11.71286678,1.093519926
10.67749808,-0.6628118753,-10.97109222,1.34237349
10.68225302,-0.04307080805,-10.52841949,1.004985452
10.68700797,0.4522434771,-10.31306553,0.6125625968
10.69176292,0.5623133183,-10.07856941,0.4402793646
10.69651787,0.3828516304,-9.710074425,0.409172684
10.70127282,0.1292124242,-9.276973724,0.6005984545
10.70602776,-0.2895315289,-8.685946465,0.8183453679
10.71078271,-0.5431707501,-8.15473938,0.9475577474
10.71553766,-0.760917604,-7.788637638,0.7920243144
10.72029261,-0.7537391186,-7.613961697,0.4761717021
10.72504756,-0.9092726111,-7.436892986,0.1459621787
10.7298025,-0.9834501147,-7.324429989,-0.05264209956
10.73455745,-1.036092162,-7.298109055,-0.1746760458
10.7393124,-0.9786644578,-7.343572617,-0.2344966233
10.74406735,-1.002592683,-7.412964344,-0.2608176768
10.7488223,-1.318445325,-7.494320393,-0.07178468257
10.75357719,-1.696511269,-7.666603565,0.1411765367
10.75833214,-1.952543259,-7.867600918,0.4522434771
10.76308709,-2.187039852,-8.039883614,0.8255237937
10.76784203,-2.500499725,-8.178668022,1.191625714
10.77259698,-2.876172781,-8.370093346,1.450050473
10.77735193,-3.110669374,-8.650053978,1.586441398
10.78210688,-3.134597778,-9.018548965,1.64626193
10.78686183,-3.134597778,-9.343972206,1.730010748
10.79161677,-3.170490026,-9.693324089,1.919043779
10.79637172,-3.321237803,-10.0331049,2.263610125
10.80112667,-3.330809116,-10.3657074,2.847458839
10.80588162,-3.175275564,-10.71027374,3.627519131
10.81063657,-2.998206854,-11.09073257,4.80957365
10.81539151,-2.751745939,-11.32044411,5.8983078
10.82014646,-2.400001049,-11.40897846,6.845865726
10.82490141,-1.988435626,-11.301301,7.566105366
10.82965636,-1.648654819,-11.01655579,8.013563156
10.83441131,-1.272981644,-10.56431198,8.059026718
10.83916625,-1.019342422,-10.09771156,7.724031448
10.8439212,-1.071984529,-9.600004196,7.039684296
10.84867615,-1.105484009,-9.123832703,6.613761902
10.8534311,-1.019342422,-8.638090134,6.149554253
10.85818604,-0.890130043,-8.298309326,5.788238049
10.86294099,-0.6101697683,-8.128418922,5.388636589
10.86769589,-0.3086741269,-7.970492363,4.84546566
10.87245084,-0.1603191197,-7.79820919,4.278367043
10.87720578,-0.08614161611,-7.661818027,3.751945972
10.88196073,0.007178467698,-7.523034573,3.457628727
10.88671568,0.08135596663,-7.530212879,3.354737282
10.89147063,0.1076770201,-7.563712597,3.254238844
10.89622558,0.2009970993,-7.716853142,3.014956474
10.90098052,0.337387979,-7.965706348,2.787638426
10.90573547,0.5312066078,-8.197810173,2.703889608
10.91049042,0.5742774606,-8.58784008,2.577069998
10.91524537,0.679561615,-8.977870941,2.459821701
10.92000032,0.9068797827,-9.332008362,2.395215511
10.92475526,1.095912814,-9.743574142,2.280359983
10.92951021,1.320838094,-10.22453117,2.143969059
10.93426516,1.596012712,-10.73659515,2.055434704
10.93902011,1.923829436,-11.18166065,1.971685886
10.94377506,2.325823545,-11.57169056,1.904686809
10.94853,2.703889608,-11.84207916,1.883151412
10.95328495,2.912065268,-12.06221867,1.830509305
10.9580399,3.089133978,-12.22253799,1.768295884
10.96279485,3.26141715,-12.23450184,1.682154298
10.9675498,3.426522017,-12.22014523,1.588834286
10.97230474,3.589233875,-12.16271782,1.466800332
10.97705969,3.775874138,-12.04068375,1.332802176
10.98181464,3.914657831,-11.8971138,1.196411371
10.98656953,4.024727821,-11.70329571,1.552941918
10.99132453,4.158725739,-11.55015469,2.098505497
10.99607943,4.39800787,-11.413764,2.292324066
11.00083438,4.752145767,-11.21515942,1.931007862
11.00558933,5.13021183,-10.99741268,0.6460621357
11.01034427,6.36251545,-11.16491032,-17.16132355
11.01509922,9.353543282,-11.11466122,-37.75395584
11.01985417,9.25783062,-9.978070259,-26.74218559
11.02460912,7.570890903,-9.023334503,-11.05723381
11.02936407,6.293123722,-8.673981667,-2.634497643
11.03411901,5.596812248,-8.580661774,0.3637090325
11.03887396,5.175675392,-8.604590416,1.59840548
11.04362891,5.00339222,-8.640482903,2.057827473
11.04838386,5.053641319,-8.681160927,1.9812572
11.05313881,5.06560564,-8.544769287,1.777867198
11.05789375,5.034498692,-8.283951759,1.660618901
11.0626487,4.931607246,-8.130811691,1.462014675
11.06740365,4.814359188,-8.145168304,1.349551916
11.0721586,4.699503899,-8.36052227,1.29451704
11.07691354,4.582255363,-8.61655426,1.426122308
11.08166849,4.419543266,-8.829515457,1.909472466
11.08642344,4.230510235,-9.054440498,2.68713975
11.09117839,3.845266104,-9.296115875,3.156133175
11.09593334,3.792623997,-9.499505997,3.732803345
11.10068828,3.761517286,-9.750752449,4.271188259
11.10544323,3.792623997,-10.09292603,4.532006264
11.11019818,4.007977962,-10.52124119,4.601397991
11.11495308,4.39800787,-10.94477081,4.692325115
11.11970802,4.893322468,-11.40897846,4.883750916
11.12446302,5.536991596,-11.92582798,5.30728054
11.12921797,6.21894598,-12.40199947,5.927021503
11.13397287,6.884150982,-12.79681587,6.582654953
11.13872782,7.549355507,-13.00020504,7.01575613
11.14348276,8.099704742,-12.91645622,7.042077065
11.14823771,8.384450912,-12.51446247,6.68076086
11.15299266,8.31027317,-11.93300629,6.01316309
11.15774761,8.030312538,-11.41615677,5.233103275
11.16250256,7.697710514,-11.04287624,4.443471432
11.1672575,7.523034573,-10.9615202,3.625126362
11.17201245,7.530212879,-11.12662506,2.818745136
11.1767674,7.676175117,-11.44726372,1.873580098
11.18152235,7.788637638,-11.94018459,-4.919643402
11.1862773,7.654639721,-13.26341629,-28.70669365
11.19103224,7.613961697,-13.46441269,-21.76032829
11.19578719,7.621140003,-12.71785259,-4.960321426
11.20054214,7.7838521,-11.80857944,2.443071842
11.20529709,7.944170952,-10.86341476,4.189832687
11.21005203,7.946564198,-9.990034103,4.144368649
11.21480698,7.893921852,-9.217152596,2.845066071
11.21956193,7.841279984,-8.487341881,0.2799602449
11.22431688,7.523034573,-7.86281538,-1.797009826
11.22907183,6.98704195,-7.372286797,-1.971685886
11.23382677,6.434299946,-7.113861561,-0.5623133183
11.23858172,5.881557941,-7.094718933,0.8183453679
11.24333667,5.391029358,-7.360322475,1.557727575
11.24809162,4.960321426,-7.889136314,1.744367719
11.25284656,4.541577339,-8.719446182,1.404586911
11.25760151,4.163511276,-9.784252167,0.5503492355
11.26235646,3.85244441,-10.97827053,-0.4594219327
11.26711136,3.816552162,-12.36132145,-1.203589797
11.27186631,4.094119549,-13.80658627,-1.409372568
11.27662125,4.493721008,-15.26142311,-1.205982566
11.2813762,4.821537495,-16.68515205,-0.8614161611
11.28613115,5.070391178,-18.04906082,-0.5718846321
11.2908861,5.05124855,-19.3507576,-0.327816695
11.29564104,4.469792843,-20.87737846,-0.1052841991
11.30039599,3.483949661,-22.47339058,0.2249253243
11.30515094,2.548356056,-23.91386986,0.5335994363
11.30990589,1.505085468,-25.12942314,0.9523434043
11.31466084,0.1339980662,-26.13440895,1.351944804
11.31941578,-1.368694544,-26.70629311,1.983649969
11.32417073,-3.036491871,-26.7804718,2.474178553
11.32892568,-4.503292084,-26.08655167,2.660818815
11.33368063,-6.252445698,-24.6843586,1.275374413
11.33843558,-9.12861824,-22.38724899,-6.558726788
11.34319052,-10.62891865,-19.68335915,-10.53320503
11.34794547,-9.516255379,-17.17089462,-8.398807526
11.35270042,-7.520641804,-15.50788403,-3.036491871
11.35745537,-6.01316309,-14.51486206,1.387837172
11.36221032,-5.123033047,-13.8233366,3.864408493
11.36696526,-4.369294167,-13.19641685,4.536791801
11.37172021,-3.924229145,-12.46899891,4.287938118
11.37647516,-3.357130051,-11.63151073,3.30927372
11.38123011,-2.792423964,-10.5475626,2.019542217
11.38598506,-2.213361025,-9.535398483,0.8111668825
11.39074,-1.521835208,-8.480163574,-0.1339980662
11.39549495,-0.9786644578,-7.451249599,-0.6628118753
11.4002499,-0.5886343718,-6.520441532,-0.8422735929
11.4050048,-0.2656033039,-5.666203976,-0.8590233326
11.4097598,0.1148554832,-4.895715237,-0.6580262184
11.41451469,0.6317051649,-4.280759811,-0.5814558864
11.41926964,1.287338614,-3.742374659,-0.5335994363
11.42402459,2.021935225,-3.316452265,-0.4546363056
11.42877953,2.560320139,-3.103491068,-0.4019941986
11.43353448,2.952743053,-3.01974225,-0.2081755698
11.43828943,3.352344513,-2.967100143,-0.07178468257
11.44304438,3.572484255,-2.969492912,0.1866401732
11.44779933,3.737588882,-2.95752883,0.5335994363
11.45255427,3.785445452,-2.991028309,0.8327022791
11.45730922,3.790230989,-2.959921598,0.9858429432
11.46206417,3.538984776,-2.97427845,1.141376376
11.46681912,3.060420275,-3.089133978,1.29451704
11.47157406,2.289931297,-3.306880951,1.404586911
11.47632901,1.402194023,-3.601198196,1.395015597
11.48108396,0.4354937077,-3.986442566,1.330409408
11.48583891,-0.5024927258,-4.359723091,1.296909928
11.49059386,-1.332802176,-4.685146809,1.349551916
11.4953488,-2.01475668,-4.881358147,1.380658627
11.50010375,-2.54117775,-5.008177757,1.351944804
11.5048587,-2.971885681,-5.027320385,1.213161111
11.50961365,-3.390629768,-4.953142643,1.117448211
11.5143686,-3.730410576,-4.819144726,1.153340459
11.51912355,-4.058227062,-4.649254322,1.098305583
11.52387849,-4.350151539,-4.527220249,0.9475577474
11.52863339,-4.594219685,-4.424329281,0.6723831892
11.53338834,-4.984249592,-4.285545349,0.3469592929
11.53814328,-5.271388054,-4.266402721,0.1148554832
11.54289823,-5.438885689,-4.321437836,-0.04307080805
11.54765318,-5.587240696,-4.309473515,-0.1507478207
11.55240813,-5.673382282,-4.316651821,-0.3158525825
11.55716308,-5.603990555,-4.323830605,-0.4283152521
11.56191802,-5.558526993,-4.34775877,-0.7010970116
11.56667297,-5.520241737,-4.419543266,-0.9379864931
11.57142792,-5.40060091,-4.532006264,-1.335195065
11.57618287,-5.280959606,-4.711467743,-1.818545222
11.58093782,-4.847858906,-5.079962254,-2.474178553
11.58569276,-3.603590965,-5.635097504,-3.247060299
11.59044771,-2.0769701,-6.211767673,-4.878965378
11.59520266,-0.5862415433,-6.908079147,-8.135597229
11.59995761,0.7752745152,-7.802994728,-12.35653591
11.60471256,2.132004976,-8.894122124,-15.01017666
11.6094675,3.768695593,-10.18146038,-15.48156261
11.61422245,6.046662807,-11.73440266,-13.13659668
11.6189774,9.035298347,-13.33998585,-6.843472958
11.62373235,11.84447193,-13.74198055,4.110869408
11.6284873,12.89731407,-12.39482117,16.14198112
11.63324224,14.57468319,-11.93061352,21.66461563
11.63799719,18.07538223,-13.14856052,22.02114677
11.64275214,22.01396751,-15.37867069,18.04906082
11.64750703,25.96691132,-17.87438583,10.71984577
11.65226198,26.14158821,-18.70469475,5.072783947
11.65701693,24.6341095,-18.74537277,1.241874933
11.66177188,23.40180588,-18.29552269,-1.253839016
11.66652683,23.29652214,-17.36949921,-2.409572363
11.67128177,23.79183578,-16.1252327,-2.385644197
11.67603672,23.38984108,-14.66561031,-1.584048629
11.68079167,22.04268265,-12.92363548,-0.4498506486
11.68554662,20.05663872,-11.21755219,0.5886343718
11.69030156,17.79302979,-9.602396965,1.304088354
11.69505651,15.23988724,-8.018348694,1.696511269
11.69981146,12.76331615,-6.620940208,2.091326952
11.70456641,10.26281643,-5.448457241,2.426322222
11.70932136,8.173882484,-4.888536453,2.612962246
11.7140763,6.702296257,-5.297709465,2.438286304
11.71883125,5.982056618,-6.838686943,1.703689694
11.7235862,5.611168861,-9.145368576,-0.09092725813
11.72834115,5.175675392,-12.19143105,-4.28315258
11.7330961,3.921836376,-15.20878029,-9.609575272
11.73785105,3.560520172,-17.19003868,-9.083154678
11.74260599,4.438685894,-18.0083828,-3.055634499
11.74736094,4.771288395,-18.79083633,1.775474429
11.75211589,4.118047714,-19.66182327,3.73998189
11.75687084,2.505285263,-20.05185318,3.876372576
11.76162578,0.4689932466,-19.71446609,1.155733347
11.76638073,-2.727817774,-18.56830406,-14.24208069
11.77113563,-5.118247509,-15.87877083,-16.15873146
11.77589058,-5.730810165,-13.46201992,-6.984649181
11.78064552,-6.034698486,-11.77508068,-1.524227977
11.78540047,-5.747560024,-10.85145092,1.610369682
11.79015542,-4.460221291,-10.59063339,2.313859463
11.79491037,-2.914458036,-10.39681435,1.890329838
11.79966532,-1.674975872,-10.24128056,1.304088354
11.80442026,-0.9667003751,-10.06899738,1.05523479
11.80917521,-0.6915257573,-9.8201437,1.031306505
11.81393016,-0.6699903607,-9.430113792,1.170090318
11.81868511,-0.7657032609,-8.851051331,1.347159147
11.82344006,-0.8877372146,-8.374878883,1.371087432
11.828195,-0.8949156404,-8.018348694,1.19880414
11.83294995,-0.9571290612,-7.690532207,0.9260223508
11.8377049,-1.21555388,-7.477570534,0.6317051649
11.84245985,-1.34237349,-7.405786037,0.4594219327
11.8472148,-1.409372568,-7.496713161,0.2536391914
11.85196974,-1.51944232,-7.680960655,0.1076770201
11.85672469,-1.569691658,-7.958528042,0.03589234129
11.86147964,-1.524227977,-8.257631302,0.07417750359
11.86623459,-1.426122308,-8.604590416,0.0933200866
11.87098953,-1.387837172,-8.865407944,0.1579262912
11.87574448,-1.349551916,-9.042476654,0.3110669553
11.88049943,-1.268195987,-9.190832138,0.4378865361
11.88525433,-1.064806104,-9.288937569,0.6125625968
11.89000927,-0.9523434043,-9.363115311,0.784845829
11.89476422,-0.9643075466,-9.482755661,1.009771109
11.89951917,-1.00737834,-9.580862045,1.110269666
