Time (s),Acceleration x (m/s^2),Acceleration y (m/s^2),Acceleration z (m/s^2)
9.000055577,-0.5935480283350917,0.7642282407675601,0.6281942032461176
9.004832295,-0.3360871691248951,0.11762330553302547,0.6746157924639417
9.009595733,-0.08619363699419187,-0.5241527038927033,0.7321821843289122
9.014385733,0.15259964594077033,-1.1566880220057507,0.800896015119579
9.019162452,0.3770893394891861,-1.7759979398467047,0.8804738122205616
9.023925889,0.5844739236620877,-2.3785901950920647,0.9703334325047588
9.028715889,0.7724161236208025,-2.961516039909645,1.0695863913127723
9.033492608,0.9390938163049478,-3.522405468382535,1.177035495503579
9.038255993,1.0832379183853338,-4.059485474312239,1.291178169222915
9.043046045,1.2041560060979604,-4.5715806497135185,1.410215825590834
9.047822764,1.3017407167279853,-5.058095921738679,1.5320695865978975
9.052586202,1.3764623307552428,-5.518981753592072,1.6544025852432196
9.057376202,1.4293453337450024,-5.954682689022409,1.77464899766552
9.06215292,1.4619292056507707,-6.36607067990131,1.890049846953033
9.066916306,1.4762141750437274,-6.754365177612946,1.9976954914199543
9.071706358,1.4745931936853092,-7.12104246475141,2.094574556119023
9.076483077,1.4597719118887107,-7.4677371283095155,2.17762888815037
9.081246514,1.4346789373558595,-7.796138908392103,2.2438139183213073
9.086036514,1.4023691029734775,-8.10788838322007,2.2901635996105205
9.090813233,1.365922814984588,-8.404475062300618,2.3138588720214623
9.09557667,1.3283447712507706,-8.68714144771394,2.312298379486379
9.10036667,1.2924654118821628,-8.956796482678673,2.2831699457014922
9.105143389,1.260848387663533,-9.21394153495663,2.224521114556022
9.109906827,1.235707113522881,-9.458611664700513,2.134826893722419
9.114696827,1.2188331307093068,-9.690334413322958,2.0130527246042718
9.119473545,1.21153855371005,-9.908107739237565,1.8587106523955683
9.124250264,1.2146143519901644,-10.110398040969816,1.6719066950047514
9.129026983,1.2283056417860017,-10.295158475920692,1.4533775121219434
9.133803702,1.2523045704303042,-10.459867033714973,1.2045146542479697
9.138567139,1.2857607932783544,-10.601583085972935,0.9273749211988239
9.143357139,1.327308991525742,-10.717020439409122,0.6246756742869775
9.148133858,1.375112368952994,-10.802634298408616,0.29977431972026314
9.152897295,1.4269206035566286,-10.854719028363402,-0.043368395159748024
9.157687295,1.4801403248296037,-10.869513229829993,-0.4002411684665212
9.162464014,1.5319158502606685,-10.843308410854661,-0.7658504253891165
9.167227452,1.5792176563426994,-10.772557503206375,-1.1348030253894779
9.172017452,1.6189358907873908,-10.653979621603774,-1.501401868308997
9.17679417,1.6479761640338377,-10.484657810487525,-1.8597524570635262
9.181557608,1.6633548940781258,-10.262127037619909,-2.2038781106449457
9.186347608,1.6622916117147528,-9.98445033350245,-2.5278412157854495
9.191124327,1.6422958427406675,-9.65028167600336,-2.8258676668995686
9.195887764,1.6012464392597283,-9.25891490636742,-3.092471482073762
9.200677764,1.537461500749631,-8.810318568833335,-3.3225765081856067
9.205454483,1.4497572806726517,-8.305157047568686,-3.511632147362061
9.21021792,1.3374947078269481,-7.744798717763659,-3.6557201507640964
9.21500792,1.200612377294911,-7.131312043450766,-3.7516497284936046
9.219784639,1.039645111053765,-6.467450666340914,-3.797038503518873
9.224548077,0.85572747898254,-5.756628563173955,-3.7903771742597776
9.229338077,0.6505820228614517,-5.0028863270560935,-3.731076127231925
9.234114795,0.4264923416882898,-4.210849571654638,-3.619492650624842
9.238878233,0.1862616613567977,-3.385680384168854,-3.456937846788924
9.243668233,-0.06684201059262304,-2.533022679196729,-3.24566283402576
9.248444952,-0.3291526027131042,-1.6589422428639016,-2.9888243630475477
9.253208389,-0.5966826634213674,-0.7698622118666867,-2.690430530960418
9.257998389,-0.8652078377447918,0.12750529308998035,-2.3552678221905508
9.262775108,-1.1303567946801185,1.0262306686153047,-1.9888112055210307
9.267538545,-1.3877041828996333,1.9192407515099683,-1.5971194417318646
9.272328545,-1.6328641949427132,2.799394442505123,-1.1867180927467451
9.277105316,-1.8615823988440459,3.659559301736636,-0.7644729675297844
9.281868702,-2.069823643598029,4.49268837897151,-0.3374568955859996
9.286658702,-2.2538540494421206,5.291896534047357,0.08718720794965518
9.291435473,-2.410315341445049,6.050535495261585,0.5023840230281529
9.296198858,-2.536290060972741,6.762266895753057,0.9012613551818581
9.30098891,-2.6293564819016693,7.421132521389001,1.277280741699626
9.305765629,-2.6876323571711414,8.021621000604124,1.624360527278591
9.310529014,-2.7098069188590594,8.558730170133854,1.9369890088181803
9.315319066,-2.69516084554351,9.028024363409902,2.2103254864804645
9.320095785,-2.6435741895729996,9.42568589230182,2.4402873216259526
9.32485917,-2.555522519819181,9.748560028956796,2.623621385823775
9.329649223,-2.432061777650929,9.994192843537403,2.7579585828265047
9.334425941,-2.2748025583669436,10.16086131626423,2.8418504335899613
9.339189327,-2.0858747082670477,10.247595218530973,2.8747870341646493
9.343979379,-1.867883260764134,10.254190347748503,2.8571960321694103
9.348756098,-1.623856820582166,10.181212803285112,2.7904226238425354
9.353519483,-1.3571895484136987,10.02999410508814,2.6766909513248858
9.358309535,-1.0715779109906685,9.802617080289822,2.5190476758064446
9.363086254,-0.770953356299738,9.50189257369341,2.3212889091439752
9.367862973,-0.4594120611767324,9.13132717265182,2.0878720922500813
9.372639691,-0.14114288622343932,8.695082273000768,1.8238147961434419
9.37741641,0.17964533394511456,8.197924948439702,1.534582772738449
9.382193129,0.49879603603899547,7.6451712190875325,1.2259698817997362
9.386969848,0.8122755713727676,7.042622443118916,0.9039727582227457
9.391746566,1.1162410968025465,6.396495674572965,0.5746632555061177
9.396509952,1.4071045515787033,5.713348936114685,0.2440618044795727
9.401300004,1.6815915550645417,5.000002443891469,-0.08198514433811645
9.406076723,1.9367940745957315,4.263456891163789,-0.3979204827427953
9.410840108,2.1702157564212543,3.510809949224721,-0.6985816596232105
9.41563016,2.3798088972166616,2.7491721802998397,-0.9792930825363362
9.420406879,2.5640021672461124,1.985583578389446,-1.2359434666092153
9.425170264,2.721718380772702,1.226931958857226,-1.4650464576965614
9.429960316,2.8523818382696073,0.47987440286921856,-1.6637835358125685
9.434737035,2.955915023379303,-0.2492370742455872,-1.8300289425100127
9.43950042,3.0327247055242883,-0.9544245212478166,-1.9623571021457096
9.444290473,3.0836777576475405,-1.630146685292551,-2.060033653582218
9.449067191,3.1100672342162694,-2.271354344638212,-2.122991723520992
9.453830577,3.1135694607240825,-2.873537504828718,-2.1517954253310445
9.458620629,3.096193062336635,-3.432763735010145,-2.1475927508126964
9.463397348,3.060221010438212,-3.9457070437682944,-2.112060050187589
9.468160733,3.0081468963271067,-4.409666831663852,-2.0473401966215583
9.472950785,2.942606752092353,-4.822576614327932,-1.955976343373509
9.477727504,2.8663078284889565,-5.183002387835409,-1.840842943799107
9.482490889,2.7819558119375967,-5.490130707342396,-1.7050754533955823
9.487280941,2.6921820297537633,-5.74374676951,-1.5519998997687838
9.49205766,2.5994722680085363,-5.944203026574401,-1.3850633158542283
9.496821045,2.5060989104095244,-6.092379108954022,-1.2077659015879374
9.501611098,2.414058177290721,-6.189634081038491,-1.0235957145441386
9.506387816,2.325014265433145,-6.237752282004081,-0.8359666781605684
9.511151202,2.24025213414929,-6.238884190622853,-0.6481607093583426
9.515941254,2.16064054565718,-6.195483887311094,-0.46327477382562104
9.520717973,2.086606760137107,-6.110244764748545,-0.28417365195146477
9.525481358,2.0181240203690938,-5.986035164390067,-0.11344912769194511
9.53027141,1.9547126404255244,-5.825835597542002,0.04661380603888961
9.535048129,1.895455133960375,-5.632679152700977,0.19406329095411898
9.539811514,1.8390253800887253,-5.409596597298991,0.32729924479736866
9.544601566,1.7837313410494133,-5.159567548533453,0.4450842370667437
9.549378285,1.7275703427642968,-4.8854789085963715,0.5465467115751909
9.554141723,1.668295443054786,-4.590091528901777,0.6311768266820221
9.558931723,1.6034909792671077,-4.276015783471554,0.6988153281155725
9.563708441,1.5306550383605304,-3.9456963962108524,0.7496360052407269
9.568471879,1.4472863492547037,-3.6014064894298983,0.7841224090829865
9.573261879,1.3509729668370039,-3.2452504167790375,0.8030396176093068
9.578038598,1.239480091621552,-2.8791745329931993,0.8074019004989337
9.582802035,1.110834429308634,-2.504984660101153,0.798437143809838
9.587592035,0.9634026180432732,-2.1243686632362992,0.7775488411336583
9.592368754,0.7959614210334913,-1.7389222789003769,0.746276361497611
9.597132191,0.6077575909040803,-1.350176173126129,0.7062541063579146
9.601922191,0.3985555595282426,-0.9596221688631775,0.6591701171743028
9.60669891,0.1686713943718715,-0.5687366810938521,0.6067247240296484
9.611462348,-0.08100821022474014,-0.17899962746944623,0.5505899296131389
9.616252348,-0.3490227694507488,0.20809258269830308,0.4923703553934207
9.621029066,-0.6333511201834326,0.591020972849229,0.4335666726822415
9.625792504,-0.9314407944203054,0.9682453902724114,0.3755424512251201
9.630582504,-1.2402531346996988,1.3382134767608325,0.3194952718259843
9.635359223,-1.5563231025719138,1.6993769102240115,0.26643279403643977
9.64012266,-1.8758322050323966,2.0502142175658724,0.21715428824341346
9.64491266,-2.194692477106785,2.3892591048961345,0.17223797119456116
9.649689379,-2.5086390489460397,2.7151329401021593,0.1320343451226312
9.654452816,-2.813328522555091,3.0265797635327516,0.09666563517495676
9.659242816,-3.1044402005100267,3.3225020055973222,0.06603133743399635
9.664019535,-3.377777145101653,3.6019949666786055,0.039819812093505554
9.668782973,-3.6293640929605298,3.8643780753347308,0.017525760703808527
9.673572973,-3.855539401047819,4.109220993436399,-0.0015267050068043997
9.678349691,-4.053038452096039,4.33636278550154,-0.018155862504723556
9.683113129,-4.219066296577279,4.545922611966456,-0.03328968755833445
9.687903129,-4.351357741404266,4.7383007341806485,-0.04792948091735393
9.692679848,-4.448223590102394,4.914169019434477,-0.06311075149804211
9.697443285,-4.508582265819918,5.074450590969545,-0.07986238924990789
9.702233285,-4.531976576454066,5.220288760946761,-0.09916522815372865
9.707010004,-4.518575880625133,5.353005889344197,-0.12191115055568773
9.711773441,-4.469164356085614,5.474053300243866,-0.14886392301058365
9.716563441,-4.3851164335064,5.58495383061323,-0.18062297966513594
9.72134016,-4.268360720471292,5.687238962514177,-0.21759137591182165
9.726103598,-4.121333895519028,5.78238278212004,-0.25994911150202754
9.730893598,-3.9469261053747897,5.871735207959885,-0.3076329525265141
9.735670316,-3.7484193683109046,5.956457028860734,-0.36032374887799107
9.740433754,-3.5294204018649467,6.037459282722311,-0.41744203759715526
9.745223754,-3.2937891877320222,6.1153493866766935,-0.4781524446400116
9.750000525,-3.045564491306909,6.190386198932081,-0.5413770636074678
9.754777191,-2.7888874894189914,6.2624458622561825,-0.6058176260747826
9.75955391,-2.527924635852409,6.330999866998149,-0.6699859152592725
9.764330681,-2.266790906092865,6.395106303529985,-0.7322415421569172
9.7691074,-2.0094745963661587,6.453414779887404,-0.7908359234208435
9.773884066,-1.7597648877495662,6.504184989977433,-0.8439610847865803
9.778660837,-1.5211834032332054,6.545318456604995,-0.8898017628853796
9.783424223,-1.296920967890257,6.574402560441732,-0.9265891850921797
9.788214275,-1.089780722750172,6.5887656118236215,-0.9526548650188054
9.792990993,-0.9021286440818855,6.585541430994244,-0.966482757768175
9.797754379,-0.7358523901706921,6.561741673334746,-0.9667581748371308
9.802544431,-0.5923292478012165,6.514333965586629,-0.9524119644954423
9.80732115,-0.47240378964441215,6.440323802005319,-0.9226586171895003
9.812097868,-0.3763756872501948,6.336838080399819,-0.8770271495779616
9.816874587,-0.30399795465298485,6.2012081324581505,-0.81538384380229
9.821651306,-0.2544857254327719,6.031050117604552,-0.7379461585191774
9.826428025,-0.2265354919937828,5.8243407039426085,-0.6452873761427239
9.831204743,-0.21835455990784794,5.5794860543987745,-0.5383318024174576
9.835981462,-0.227700291299442,5.295382272417448,-0.41834058833146365
9.840758181,-0.2519285278069924,4.971465640201571,-0.2868884976771731
9.8455349,-0.28805039549452954,4.607751202649806,-0.14583219019793323
9.850311618,-0.332796503713525,4.204858509143367,0.002729177429157387
9.855088337,-0.3826873616981755,3.764023619148104,0.15650001910536573
9.859865056,-0.4341086556067837,3.2870968013169928,0.3130398563477546
9.864641775,-0.48338986125327843,2.7765257040215494,0.4698189721910761
9.86940516,-0.5268845242599711,2.235324142162664,0.6242767139725892
9.874195212,-0.5610504340221381,1.6670270236589249,0.7738809074403715
9.878971931,-0.58252786492983,1.0756323200558076,0.9161868264707421
9.883735316,-0.5882140678807012,0.4655313584062723,1.0488941967101446
9.888525368,-0.575332271625604,-0.1585709350874474,1.1699007918239654
9.893302087,-0.5414935955786797,-0.7917438855077984,1.277351296726424
9.898065473,-0.4847504769219005,-1.4289247759207433,1.3696802500674723
9.902855525,-0.4036404641039009,-2.065015940555901,1.4456480260042048
9.907632243,-0.29721951110807876,-2.694982606603959,1.504368963743464
9.912395629,-0.16508420441654414,-3.313948752871136,1.5453308989302164
9.917185681,-0.007382649565649339,-3.917288240943644,1.5684054977714068
9.9219624,0.17518597852887804,-4.500708548498271,1.573848954919897
9.926725785,0.3813829672136833,-5.060324600053045,1.5622928054891776
9.931515837,0.609452204209476,-5.592720452569379,1.5347248318046214
9.936292556,0.8571522486209788,-6.094996953646289,1.4924603178835325
9.941055941,1.1217974779360975,-6.564803942821783,1.4371042094551991
9.945845993,1.4003072809744195,-7.000356095043263,1.370505056761032
9.950622712,1.6892621080898527,-7.4004320829205,1.2947019289756179
9.955386098,1.9849650589621026,-7.764357328753915,1.2118657703131581
9.96017615,2.283507601289904,-8.091971196286528,1.1242369015540832
9.964952868,2.580837980959235,-8.383580006756784,1.0340605489344241
9.969716254,2.87283090464324,-8.639897729641541,0.9435224056814029
9.974506306,3.155357138530242,-8.861976575348374,0.8546863022050746
9.979283025,3.424351758459552,-9.05112999007229,0.7694360737077018
9.98404641,3.67587989706466,-9.208850714817778,0.6894236523504041
9.988836462,3.906198957852546,-9.33672662455205,0.6160252540973098
9.993613181,4.1118164032653,-9.436357023770974,0.5503072642078973
9.998376618,4.289542372464434,-9.509271962278198,0.4930030543627028
10.00316662,4.43653654089187,-9.556856970332385,0.4445015148169593
10.00794334,4.550348790814581,-9.580285409975275,0.4048475980957414
10.01272006,4.628953412790009,-9.580460405607875,0.37375468857995126
10.01749678,4.670776695889211,-9.557968051768917,0.3506281660471726
10.02227349,4.674717882420463,-9.513043296664064,0.33459913903363225
10.02705021,4.6401635518575315,-9.445549563609193,0.3245669950873141
10.03182693,4.5669955515795735,-9.354972800467447,0.31924915372165835
10.03660365,4.455592609592574,-9.240430247686174,0.3172362141050587
10.04138037,4.3068257567769646,-9.100693803340102,0.3170505591544327
10.04615709,4.122047667987218,-8.934227455841777,0.3172064037684091
10.05093381,3.9030760159340283,-8.739237868307342,0.31626924912995075
10.05571052,3.6521709304117485,-8.513736847745486,0.31291271941503096
10.06048724,3.372006677712235,-8.255614128633328,0.3059708074596122
10.06526396,3.065637726972971,-7.96271864996297,0.294483644512884
10.0700274,2.7364594516625766,-7.632946307354092,0.2777350469240994
10.0748174,2.3881638209669194,-7.264332012446334,0.2552802977792242
10.07959412,2.024690562649842,-6.855143783637126,0.226962915762092
10.08435756,1.650174420416565,-6.403976521099195,0.19291955988605666
10.08914756,1.268889272986086,-5.909843087676656,0.15357270784227595
10.09392428,0.8851900084433645,-5.372260334521585,0.10961129586123304
10.09868771,0.5034531339867119,-4.791327784729571,0.06196007982918648
10.10347771,0.12801713443394772,-4.167796822879476,0.011739033980874627
10.10825448,-0.23687642842905954,-3.5031284302507553,-0.039785392812465646
10.11301787,-0.5871401498061155,-2.7995377461947233,-0.09125493436613057
10.11780787,-0.9188955173454831,-2.0600240126505325,-0.1412775765491418
10.12258464,-1.2285244200716587,-1.2883847560224746,-0.18848642964339912
10.12734802,-1.5127168051408637,-0.48921336578984026,-0.23159686083322176
10.13213808,-1.7685139555602212,0.3321204651022292,-0.26945956819497485
10.1369148,-1.9933469594526065,1.169507668987008,-0.3011076237985401
10.14167818,-2.185070038071887,2.0161540287005515,-0.3257959338001975
10.14646823,-2.341988491727505,2.8646513208135107,-0.34303200845229953
10.15124495,-2.462881103525985,3.707064687719627,-0.35259736395623836
10.15600834,-2.5470169045075894,4.535035233048431,-0.354559263983428
10.16079839,-2.594166246666091,5.339896514726556,-0.34927283847860485
10.16557511,-2.604606150716108,6.11280329091476,-0.3373738889321679
10.17033849,-2.579119893953856,6.844870563402234,-0.31976290695798293
10.17512854,-2.5189907848273427,7.527320670282479,-0.2975810039275397
10.17990526,-2.4259900440169533,8.151635915035117,-0.27217858236056613
10.18466865,-2.302358688198156,8.709713991652437,-0.2450776846847755
10.1894587,-2.1507833021167824,9.194023282104016,-0.2179290415426745
10.19423542,-1.9743655939260703,9.597754967980672,-0.19246491743945224
10.19899881,-1.7765856624354912,9.914968816138062,-0.17044892013640392
10.20378886,-1.5612589665743433,10.140729471676512,-0.1536240022760502
10.20856558,-1.332487079682938,10.271230123734217,-0.14365993670854707
10.21332896,-1.0946024354535242,10.303900503760055,-0.14210158583763285
10.21811901,-0.8521074271627289,10.237496335749025,-0.15031930315596126
10.22289573,-0.6096084019887151,10.072167586152757,-0.16946279397423597
10.22765912,-0.37174528813183577,9.809503159045851,-0.20041971409394296
10.23244917,-0.14311779236629485,9.452550049396924,-0.24378019337394832
10.23722589,0.07179070156634383,9.005805402761348,-0.29980833296169257
10.24198928,0.26869022704203693,8.475180431413644,-0.3684215433250695
10.24677933,0.44356086389565264,7.867935701437251,-0.4491783748649514
10.25155605,0.5927273318386126,7.19258792595025,-0.5412752587239701
10.25631943,0.7129299114451588,6.458789064723709,-0.6435523390581583
10.26110948,0.8013900498793702,5.6771792222905235,-0.7545083551041616
10.2658862,0.8558690666563868,4.859215532493794,-0.8723243349371125
10.27064959,0.8747184961489076,4.016979891782279,-0.9948957012037924
10.27543964,0.8569207810181404,3.162969031531235,-1.1198722622579382
10.28021636,0.8021192526001633,2.3098709799961137,-1.2447054589972377
10.28497974,0.7106365860180502,1.4703324410433503,-1.3667021379468134
10.2897698,0.5834811828537022,0.6567219981809348,-1.483084001236785
10.29454651,0.4223411945115913,-0.11910566945026904,-1.591051725820126
10.2993099,0.22956613735162204,-0.8460392039793809,-1.687852541461336
10.30409995,0.008136253876333353,-1.5139282103918328,-1.7708498180207788
10.30887667,-0.23838005868389442,-2.1137837829640365,-1.8375929579269803
10.31364006,-0.5058802886450331,-2.6379567739202847,-1.8858856484061093
10.31843011,-0.789792718053123,-3.0802889968782186,-1.91385033355035
10.32320683,-1.0851514464075467,-3.436233040748177,-1.9199866524689424
10.32797026,-1.3866805982548351,-3.702937009086189,-1.9032215849720355
10.33276026,-1.6888865706033853,-3.8792912984014962,-1.8629491675064336
10.33753698,-1.9861569351497323,-3.965935480386681,-1.7990578922614888
10.34230037,-2.2728643542169733,-3.9652244409637585,-1.711944272606676
10.34709042,-2.5434736177613586,-3.8811541266691005,-1.6025115325538721
10.35186714,-2.7926496852770253,-3.7192485158428497,-1.4721529371186033
10.35663058,-3.0153644468631766,-3.4864107078554456,-1.3227199002240018
10.36142058,-3.206999827510747,-3.190742227297512,-1.1564756565409593
