"Time (s)","Acceleration x (m/s^2)","Acceleration y (m/s^2)","Acceleration z (m/s^2)"
7.160450000E-4,-9.678967595E-1,4.626522541E0,7.982456207E0
5.492764000E-3,-9.996016622E-1,4.636094093E0,8.256434441E0
1.026948300E-2,-1.074975610E0,4.616353035E0,8.338388443E0
1.504620200E-2,-1.203589797E0,4.563112736E0,8.319844246E0
1.982292000E-2,-1.341775298E0,4.495515347E0,8.310871124E0
2.459963900E-2,-1.412363529E0,4.442275047E0,8.416753769E0
2.937635800E-2,-1.463809252E0,4.408177376E0,8.575278282E0
3.415307700E-2,-1.411167145E0,4.393820763E0,8.589634895E0
3.892979500E-2,-1.282552958E0,4.360321045E0,8.593822479E0
4.370651400E-2,-1.053440213E0,4.409373760E0,8.732007980E0
4.848323300E-2,-8.662018180E-1,4.375874519E0,8.918049812E0
5.325995200E-2,-6.317051649E-1,4.356731892E0,9.156734467E0
5.803667000E-2,-3.840480447E-1,4.381856441E0,9.314062119E0
6.281338900E-2,-3.218346536E-1,4.353142738E0,9.370891571E0
6.759010800E-2,-3.780659735E-1,4.314259052E0,9.400203705E0
7.236682700E-2,-4.971089065E-1,4.284946918E0,9.381659508E0
7.714354500E-2,-6.400800347E-1,4.226323128E0,9.276973724E0
8.192026400E-2,-7.932206988E-1,4.158725739E0,9.105288506E0
8.669698300E-2,-9.278169870E-1,4.134199142E0,8.913862228E0
9.147370200E-2,-1.047458172E0,4.115056515E0,8.732007980E0
9.625042000E-2,-1.162313581E0,4.085744858E0,8.602795601E0
1.010271390E-1,-1.244267821E0,4.061218262E0,8.502297401E0
1.058038580E-1,-1.292124271E0,4.070789337E0,8.444869041E0
1.105805770E-1,-1.296909928E0,4.070789337E0,8.397012711E0
1.153572950E-1,-1.264606714E0,4.109673023E0,8.320442200E0
1.201340140E-1,-1.255633712E0,4.167698860E0,8.286344528E0
1.249107330E-1,-1.207179070E0,4.234697819E0,8.334200859E0
1.296874520E-1,-1.159322619E0,4.283750534E0,8.372486115E0
1.344641700E-1,-1.073779106E0,4.365705013E0,8.434102058E0
1.392408890E-1,-9.212366939E-1,4.332803726E0,8.438288689E0
1.440176600E-1,-3.272185028E-1,4.010969162E0,8.248059273E0
1.487943270E-1,-7.447660565E-1,4.163511276E0,8.452047348E0
1.535710980E-1,-1.039681435E0,4.298706055E0,8.505886078E0
1.583478160E-1,-1.155733347E0,4.452444553E0,8.338388443E0
1.631245350E-1,-1.170688510E0,4.476373196E0,8.204390526E0
1.679012540E-1,-9.750752449E-1,4.515256405E0,8.352147102E0
1.726779730E-1,-7.501499057E-1,4.487140656E0,8.519046783E0
1.774546910E-1,-5.593222976E-1,4.453640938E0,8.638090134E0
1.822314100E-1,-4.199403822E-1,4.468596458E0,8.877371788E0
1.870081290E-1,-2.997010350E-1,4.511667252E0,9.135796547E0
1.917848480E-1,-1.890329868E-1,4.588835716E0,9.394221306E0
1.965615660E-1,-1.214357466E-1,4.704887390E0,9.667003632E0
2.013382850E-1,-1.968096644E-1,4.661218643E0,9.735198975E0
2.061150040E-1,-2.727817893E-1,4.569693089E0,9.663414001E0
2.108917230E-1,-2.775674164E-1,4.444069862E0,9.605986595E0
2.156684410E-1,-3.732803464E-1,4.309473515E0,9.481559753E0
2.204451600E-1,-5.443671346E-1,4.221537113E0,9.367302895E0
2.252218790E-1,-6.921239495E-1,4.192225456E0,9.324830055E0
2.299985980E-1,-5.539384484E-1,4.245465755E0,9.367302895E0
2.347753160E-1,-1.196411345E-2,4.131208420E0,9.268598557E0
2.395520350E-1,-2.446661144E-1,3.899702787E0,9.265607834E0
2.443287540E-1,-9.236295223E-1,4.028316975E0,9.489336014E0
2.491054730E-1,-1.205384374E0,4.162314892E0,9.404391289E0
2.538821910E-1,-1.336391449E0,4.374678135E0,9.117252350E0
2.586589100E-1,-1.313659668E0,4.470989227E0,9.030512810E0
2.634356290E-1,-1.161117196E0,4.432703972E0,8.948558807E0
2.682123480E-1,-1.038485050E0,4.302893162E0,8.779864311E0
2.729890660E-1,-1.063011408E0,4.191627026E0,8.597412109E0
2.777657850E-1,-1.106680512E0,4.134199142E0,8.372486115E0
2.825425040E-1,-1.136590719E0,4.129413605E0,8.108677864E0
2.873192230E-1,-1.166501045E0,4.100699902E0,7.907082558E0
2.920959410E-1,-1.185045362E0,4.042674065E0,7.912466049E0
2.968726600E-1,-1.188634634E0,3.960719585E0,8.133204460E0
3.016493790E-1,-1.158126116E0,3.902693748E0,8.410771370E0
3.064260980E-1,-1.142572761E0,3.878765583E0,8.622536659E0
3.112028160E-1,-1.146162033E0,3.883551121E0,8.766703606E0
3.159795350E-1,-1.140778184E0,3.912265062E0,8.876773834E0
3.207562540E-1,-1.073779106E0,3.921836376E0,8.977272034E0
3.255329730E-1,-9.158528447E-1,3.936791420E0,9.125029564E0
3.303096910E-1,-7.202396393E-1,3.966103554E0,9.277571678E0
3.350864100E-1,-5.150550604E-1,3.966701746E0,9.420542717E0
3.398631290E-1,-4.289134443E-1,4.004986763E0,9.515657425E0
3.446398480E-1,-4.815555513E-1,4.106083870E0,9.496515274E0
3.494165660E-1,-1.036092162E0,4.688137531E0,9.360123634E0
3.541933370E-1,-1.253839016E0,5.347360611E0,9.192625999E0
3.589700560E-1,-1.150349498E0,5.343173027E0,8.866005898E0
3.637467750E-1,-1.158724308E0,4.996213913E0,8.900103569E0
3.685234930E-1,-9.924231768E-1,4.645066738E0,8.645268440E0
3.733002120E-1,-9.068797827E-1,4.433900356E0,8.586644173E0
3.780769310E-1,-6.969096065E-1,4.299304008E0,8.561519623E0
3.828536500E-1,-4.552344978E-1,4.212564468E0,8.392825127E0
3.876303680E-1,-2.374876440E-1,4.155734539E0,8.228319168E0
3.924070870E-1,-2.392822690E-2,4.112663746E0,8.088338852E0
3.971838060E-1,1.902294010E-1,4.070191383E0,8.087141991E0
4.019605250E-1,3.990031779E-1,4.094717979E0,7.951947689E0
4.067372430E-1,5.682953596E-1,4.104887009E0,7.672585964E0
4.115139620E-1,7.848458290E-1,4.076771736E0,7.325626373E0
4.162906810E-1,1.149751306E0,3.996013880E0,6.988238335E0
4.210674000E-1,1.591227055E0,3.876372576E0,6.745965004E0
4.258307850E-1,2.105085611E0,3.796213150E0,6.753143787E0
4.306208370E-1,2.720639229E0,3.677170277E0,6.922435760E0
4.353975560E-1,3.322434187E0,3.605983734E0,7.250850677E0
4.401609410E-1,3.769293785E0,3.346960783E0,7.925626755E0
4.449509930E-1,4.213162422E0,2.898904562E0,8.705686569E0
4.497277120E-1,4.822135925E0,2.423929453E0,9.239884377E0
4.544910980E-1,5.315057278E0,2.222334146E0,9.602396965E0
4.592811500E-1,5.234299660E0,2.568695068E0,9.809376717E0
4.640578680E-1,4.576871395E0,3.270988464E0,9.941579819E0
4.688345870E-1,4.255635262E0,3.713062525E0,9.832706451E0
4.736113060E-1,4.429712772E0,3.969094515E0,9.571888924E0
4.783880250E-1,4.517649174E0,3.964308977E0,9.187840462E0
4.831647430E-1,4.511068821E0,3.892524242E0,8.909674644E0
4.879414620E-1,4.486542225E0,3.733401537E0,8.612366676E0
4.927181810E-1,4.441677094E0,3.570091486E0,8.267202377E0
4.974949000E-1,4.292723656E0,3.468396425E0,7.980063438E0
5.022716180E-1,4.039682865E0,3.395415306E0,7.785048485E0
5.070483370E-1,3.867399693E0,3.385843992E0,7.642077446E0
5.118250560E-1,3.614956856E0,3.462414265E0,7.590033531E0
5.166017750E-1,3.400799274E0,3.528815269E0,7.629515171E0
5.213784930E-1,3.091526747E0,3.561716557E0,7.698308468E0
5.261552120E-1,2.845066071E0,3.595216036E0,7.881958008E0
5.309319310E-1,3.054438114E0,3.552145243E0,7.804191113E0
5.357086500E-1,3.205185890E0,3.576671600E0,7.597211838E0
5.404853680E-1,3.218944550E0,3.658625841E0,7.573283672E0
5.452620870E-1,3.157329559E0,3.798007727E0,7.717451096E0
5.500388060E-1,3.227917671E0,3.812962770E0,7.587042332E0
5.548155250E-1,3.274577856E0,3.760320902E0,7.269993305E0
5.595922950E-1,2.915654421E0,3.451048374E0,6.869195461E0
5.643690140E-1,2.459223509E0,3.195016384E0,6.717849731E0
5.691457330E-1,2.742174864E0,3.417548895E0,6.424130440E0
5.739224520E-1,2.760719061E0,3.393022537E0,6.380461693E0
5.786991700E-1,2.743371248E0,3.335594654E0,6.625725746E0
5.834758890E-1,2.601596355E0,3.262613773E0,6.698108673E0
5.882526080E-1,2.382055044E0,3.223730326E0,6.574878216E0
5.930293270E-1,2.053041935E0,3.227917671E0,6.475576401E0
5.978060450E-1,1.625324726E0,3.274577856E0,6.626324177E0
6.025827640E-1,1.177866936E0,3.297309637E0,7.300501823E0
6.073594830E-1,4.570291340E-1,3.208775282E0,8.431708336E0
6.121228680E-1,1.227517962E0,2.776272535E0,8.894122124E0
6.169129200E-1,2.255235434E0,2.032104731E0,9.354740143E0
6.216896390E-1,3.315255880E0,1.460818172E0,9.617950439E0
6.264530250E-1,3.746562004E0,5.030909777E-1,1.046142101E1
6.312430770E-1,4.685744762E0,1.878365725E-1,9.813564301E0
6.360197950E-1,6.080760479E0,1.034895778E0,8.082955360E0
6.407831810E-1,6.619145870E0,1.624128342E0,7.815557003E0
6.455732330E-1,6.348158360E0,1.844268084E0,8.743373871E0
6.503499520E-1,5.818746567E0,1.636092424E0,9.105886459E0
6.551266700E-1,5.091328144E0,1.119242787E0,8.947361946E0
6.599033890E-1,4.537988186E0,5.539384484E-1,8.369495392E0
6.646801080E-1,4.198207378E0,4.187439680E-1,7.253243446E0
6.694435450E-1,3.504886866E0,4.127618968E-1,5.864808083E0
6.742335450E-1,2.816950560E0,3.828516304E-1,4.616353035E0
6.790102640E-1,2.480758905E0,4.498506486E-1,3.360719442E0
6.837737020E-1,3.403790236E0,5.976074338E-1,1.791027784E0
6.885637020E-1,2.997010469E0,3.320041299E-1,5.599204898E-1
6.933404200E-1,2.279761791E0,-1.220339537E-1,4.630111754E-1
6.981038580E-1,1.058824062E0,-5.258227587E-1,1.305284739E0
7.028938580E-1,-9.332008660E-2,-6.927221417E-1,2.688336134E0
7.076705770E-1,-1.268195957E-1,-4.815555513E-1,4.454837322E0
7.124472950E-1,1.316650629E0,-1.992024779E-1,5.555535793E0
7.172240140E-1,2.413161755E0,-2.111666054E-1,6.716054916E0
7.220007330E-1,2.815753937E0,-5.246263742E-1,7.841877937E0
7.267641700E-1,3.324826956E0,-9.278169870E-1,8.391031265E0
7.315541700E-1,4.182055950E0,-1.238883972E0,8.391629219E0
7.363308890E-1,5.098506927E0,-1.299302697E0,8.060821533E0
7.410943270E-1,5.728417397E0,-1.181456208E0,7.621140003E0
7.458843270E-1,6.034100533E0,-1.031306505E0,7.186842918E0
7.506610450E-1,6.206982136E0,-8.626125455E-1,6.759125710E0
7.554244830E-1,6.327819347E0,-7.752745152E-1,6.349953175E0
7.602144830E-1,6.520441532E0,-7.166503668E-1,5.931807518E0
7.649912540E-1,6.771090031E0,-7.016952634E-1,5.614160061E0
7.697546390E-1,7.035496712E0,-7.106683254E-1,5.338985443E0
7.745446910E-1,7.233502865E0,-7.435696125E-1,5.088337421E0
7.793214100E-1,7.351947784E0,-7.094719410E-1,4.957928658E0
7.840847950E-1,7.475177765E0,-6.418746710E-1,4.952544689E0
7.888748480E-1,7.684549809E0,-5.497509837E-1,5.075775146E0
7.936515660E-1,8.024331093E0,-4.815555513E-1,5.290530682E0
7.984149520E-1,8.415556908E0,-4.325026870E-1,5.533402443E0
8.032050040E-1,8.787641525E0,-4.462614357E-1,5.766104221E0
8.079817230E-1,9.155537605E0,-4.983053207E-1,5.951548100E0
8.127451080E-1,9.555737495E0,-5.072783828E-1,6.050251961E0
8.175351600E-1,9.907482147E0,-5.353940725E-1,6.034100533E0
8.223118790E-1,1.019761181E1,-5.922235847E-1,5.888736725E0
8.270752640E-1,1.039143085E1,-6.927221417E-1,5.642873764E0
8.318653160E-1,1.052303600E1,-8.081758618E-1,5.316253662E0
8.366420350E-1,1.065404320E1,-8.602197170E-1,4.960321426E0
8.414054200E-1,1.079043388E1,-8.841479421E-1,4.710271358E0
8.461954730E-1,1.089811039E1,-9.320043921E-1,4.407579422E0
8.509721910E-1,1.101595688E1,-9.696913958E-1,4.162314892E0
8.557355770E-1,1.110030460E1,-1.061216831E0,3.926023722E0
8.605256290E-1,1.114696407E1,-1.214955688E0,3.657429457E0
8.653023480E-1,1.117926693E1,-1.316052437E0,3.436691523E0
8.700657850E-1,1.121216869E1,-1.393221021E0,3.282952785E0
8.748557850E-1,1.077368355E1,-1.688136339E0,3.064607620E0
8.796325040E-1,1.071984577E1,-1.774876237E0,2.810370207E0
8.843959410E-1,1.105603695E1,-1.619940877E0,2.635694027E0
8.891859410E-1,1.158843994E1,-1.415952802E0,2.556132793E0
8.939626600E-1,1.209153080E1,-1.298704505E0,2.505285263E0
8.987260980E-1,1.296610737E1,-9.738788009E-1,2.481357098E0
9.035160980E-1,1.369831181E1,-8.279166222E-1,2.458625317E0
9.082928160E-1,1.405484200E1,-9.475577474E-1,2.389831543E0
9.130562540E-1,1.404527092E1,-1.183250785E0,2.269592285E0
9.178462540E-1,1.404945850E1,-1.289133191E0,2.106880426E0
9.226229730E-1,1.404826164E1,-1.303490162E0,1.924427629E0
9.273864100E-1,1.393400478E1,-1.386042476E0,1.804786444E0
9.321764100E-1,1.405125237E1,-1.279561877E0,1.621735573E0
9.369531290E-1,1.375633717E1,-1.362712502E0,1.527219057E0
9.417298480E-1,1.363191032E1,-1.323829174E0,1.412961721E0
9.465066180E-1,1.337109280E1,-1.353141189E0,1.515254974E0
9.512832850E-1,1.320957756E1,-1.339382529E0,1.736590981E0
9.560600560E-1,1.283629704E1,-1.432104349E0,2.065006018E0
9.608367750E-1,1.238225937E1,-1.611566067E0,2.394019127E0
9.656134930E-1,1.199402332E1,-1.853839397E0,2.578266382E0
9.703902120E-1,1.171466160E1,-2.104487419E0,2.613560438E0
9.751669310E-1,1.156750298E1,-2.350350142E0,2.580659151E0
9.799436500E-1,1.148255730E1,-2.539382935E0,2.528615236E0
9.847203680E-1,1.117866898E1,-2.756531715E0,2.506481647E0
9.894970870E-1,1.108774185E1,-2.819343328E0,2.473580360E0
9.942738060E-1,1.150469112E1,-2.755335331E0,2.197807550E0
9.990505250E-1,1.166800117E1,-2.697309256E0,2.494517565E0
1.003827243E0,1.207896900E1,-2.663211584E0,2.794218540E0
1.008603962E0,1.258564854E1,-2.714657307E0,3.137588739E0
1.013380681E0,1.230927753E1,-3.125026464E0,3.619144201E0
1.018157400E0,1.172363472E1,-3.564707518E0,4.135993958E0
1.022934118E0,1.208315659E1,-3.342773199E0,4.714458942E0
1.027697504E0,1.231466198E1,-3.198007345E0,5.279763222E0
1.032487556E0,1.247139168E1,-3.125624657E0,6.032305717E0
1.037264275E0,1.270708466E1,-3.077169895E0,6.549155712E0
1.042027660E0,1.294636726E1,-3.096312523E0,6.773482800E0
1.046817712E0,1.325444317E1,-3.148356438E0,6.541976929E0
1.051594431E0,1.338186073E1,-3.239283562E0,6.296114445E0
1.056371150E0,1.263171101E1,-3.375674486E0,5.647659779E0
1.061147868E0,1.242233849E1,-3.260220766E0,4.933402061E0
1.065924587E0,1.305404377E1,-2.925823927E0,3.476173162E0
1.070688025E0,1.385803223E1,-2.474776745E0,2.108675003E0
1.075478025E0,1.492523098E1,-2.212164640E0,1.680359721E0
1.080254743E0,1.507896996E1,-2.134397745E0,1.132403374E0
1.085018181E0,1.475593948E1,-2.212164640E0,1.196411371E0
1.089808181E0,1.432822227E1,-2.434697151E0,1.228116274E0
1.094584900E0,1.407219028E1,-2.469393015E0,1.334596872E0
1.099361618E0,1.370369530E1,-2.441277266E0,1.749153376E0
1.104138337E0,1.335254860E1,-2.278565407E0,2.000998020E0
1.108915056E0,1.325384426E1,-2.143969059E0,1.516451359E0
1.113691775E0,1.327956772E1,-2.191825628E0,1.770090580E0
1.118468493E0,1.329272842E1,-2.331805706E0,2.332403898E0
1.123245212E0,1.310668564E1,-2.665006161E0,2.822334290E0
1.128021931E0,1.278245831E1,-2.901895761E0,2.541177750E0
1.132798702E0,1.195214939E1,-3.014358282E0,2.123630047E0
1.137575368E0,1.093759251E1,-3.257827997E0,1.816750646E0
1.142338806E0,1.001874828E1,-3.312862873E0,1.648654819E0
1.147128858E0,9.101100922E0,-3.093321562E0,1.073180914E0
1.151905577E0,9.156135559E0,-2.982055187E0,-7.178467698E-3
1.156668962E0,9.955338478E0,-3.447459221E0,5.838487148E-1
1.161459014E0,9.663414001E0,-3.814757586E0,8.404789567E-1
1.166235733E0,9.884750366E0,-4.652843475E0,2.432902336E0
1.170999118E0,9.329017639E0,-4.335794449E0,1.941775560E0
1.175789170E0,8.985647202E0,-4.804787636E0,3.042474031E0
1.180565889E0,8.605786324E0,-5.683551788E0,5.876173973E0
1.185329275E0,8.236095428E0,-5.650650501E0,5.379663467E0
1.190119327E0,7.436892986E0,-5.937191010E0,5.234299660E0
1.194896045E0,7.192824841E0,-5.705685616E0,4.314857483E0
1.199659431E0,7.214360237E0,-5.464010715E0,3.316452265E0
1.204449483E0,7.657630444E0,-5.067998409E0,2.871985435E0
1.209226202E0,8.079365730E0,-4.883750916E0,2.691925526E0
1.214002920E0,8.434102058E0,-5.119443893E0,2.992224693E0
1.218779639E0,8.556135178E0,-5.263611794E0,4.173082829E0
1.223556358E0,8.535198212E0,-5.500501156E0,5.310869694E0
1.228333077E0,8.054241180E0,-5.294120312E0,3.786641836E0
1.233109795E0,8.968298912E0,-5.870790482E0,5.860022545E0
1.237886514E0,9.563513756E0,-6.125626087E0,8.203792572E0
1.242649952E0,9.209974289E0,-6.007779598E0,1.115234852E1
1.247439952E0,8.490931511E0,-5.749952793E0,1.360858059E1
1.252216670E0,7.551748276E0,-4.746761799E0,1.617009735E1
1.256980108E0,7.728816986E0,-2.608774900E0,1.981974983E1
1.261770108E0,8.670392990E0,-2.853441000E0,1.177208900E1
1.266546827E0,9.406784058E0,-2.852842808E0,3.710669756E0
1.271310264E0,1.005823040E1,-1.894517303E0,-2.906681299E0
1.276100264E0,1.184028435E1,-5.102694035E-1,-7.130611420E0
1.280876983E0,1.166142082E1,2.494517565E-1,-4.889134884E0
1.285640420E0,1.136052418E1,-5.862415582E-2,-6.058028698E0
1.290430420E0,1.099621677E1,-8.261220455E-1,-5.263611794E0
1.295207139E0,9.969695091E0,-8.434699774E-1,-4.250251293E0
1.299970577E0,8.700303078E0,-5.000999570E-1,-3.164507866E0
1.304760577E0,7.610372543E0,-4.887340367E-1,-2.438286304E0
1.309537295E0,7.194619656E0,-8.799605370E-1,-2.244467735E0
1.314300733E0,6.554539204E0,-1.705484390E0,-2.302493572E0
1.319090785E0,6.313462734E0,-2.780459881E0,-1.801795483E0
1.323867504E0,6.069394588E0,-4.154538155E0,-1.242473125E0
1.328630889E0,5.991029739E0,-4.849055290E0,-4.360919297E-1
1.333420941E0,5.057828903E0,-5.078167915E0,1.788634956E-1
1.338197660E0,4.119244099E0,-5.046463013E0,-3.230310604E-2
1.342961045E0,3.766901016E0,-5.605186939E0,-1.195813060E0
1.347751098E0,3.917050600E0,-6.178267956E0,-1.777269006E0
1.352527816E0,4.200001717E0,-6.312266350E0,-1.451845169E0
1.357291202E0,4.689932346E0,-5.858826160E0,-5.437689424E-1
1.362081254E0,4.953741074E0,-5.703890800E0,-1.226321608E-1
1.366857973E0,5.097908497E0,-6.074778557E0,-4.606183618E-2
1.371621358E0,5.743970871E0,-6.015556335E0,-1.788634956E-1
1.376411410E0,6.461219311E0,-5.444868088E0,-8.255238086E-2
1.381188129E0,7.278368473E0,-4.652843475E0,1.477568001E-1
1.385951514E0,7.433901787E0,-4.258028030E0,1.752742529E-1
1.390741566E0,6.996613503E0,-4.485345840E0,5.324030295E-2
1.395518285E0,7.643273830E0,-4.415954113E0,1.172483116E-1
1.400281670E0,9.582057953E0,-3.761517286E0,6.340979785E-2
1.405071723E0,1.072283649E1,-3.662813187E0,6.711867452E-1
1.409848441E0,1.051107121E1,-4.274777889E0,7.692924738E-1
1.414611827E0,9.096315384E0,-5.501697540E0,5.467599630E-1
1.419401879E0,9.512666702E0,-5.558526993E0,1.848455518E-1
1.424178598E0,1.098066330E1,-4.210171223E0,-2.602194548E-1
1.428941983E0,1.222014523E1,-2.968894720E0,-6.807580590E-1
1.433732035E0,1.244865990E1,-2.713460922E0,-6.245267391E-1
1.438508754E0,1.000738239E1,-4.199403763E0,1.606182218E0
1.443272191E0,6.828517437E0,-5.547759533E0,4.671388149E0
1.448062191E0,5.166702271E0,-6.270989895E0,7.281359196E0
1.452838910E0,5.765506268E0,-6.852446079E0,7.576872826E0
1.457602348E0,5.583053589E0,-7.315456867E0,7.064210415E0
1.462392348E0,5.135595798E0,-7.590631485E0,6.188437462E0
1.467169066E0,4.750350952E0,-7.094120979E0,4.010969162E0
1.471932504E0,4.696512699E0,-5.801996708E0,2.897109985E0
1.476722504E0,5.517251015E0,-4.268197536E0,1.711466432E0
1.481499223E0,6.641877651E0,-2.679961443E0,5.048855543E-1
1.486262660E0,7.788637638E0,-2.117648125E0,6.640082598E-2
1.491052660E0,7.204190731E0,-2.789433002E0,6.652047038E-1
1.495829379E0,8.047660828E0,-3.617349625E0,2.844467878E0
1.500606150E0,7.774280548E0,-4.219742775E0,2.928216696E0
1.505382816E0,8.417351723E0,-4.334000111E0,3.002394199E0
1.510159535E0,8.093722343E0,-4.623531342E0,2.816352367E0
1.514936254E0,7.230511665E0,-5.150550842E0,1.429711580E0
1.519713025E0,6.470790863E0,-5.522634506E0,7.621139884E-1
1.524489743E0,5.976074696E0,-5.455635548E0,-8.865407705E-1
1.529253129E0,5.593223095E0,-5.012963295E0,-1.786840320E0
1.534043181E0,5.609374523E0,-4.734199524E0,-1.374078393E0
1.538819848E0,5.442475319E0,-4.252644062E0,-2.506481707E-1
1.543583285E0,5.888736725E0,-4.593621254E0,-6.753742099E-1
1.548373337E0,6.178866386E0,-4.727619171E0,-2.341975212E0
1.553150056E0,5.855835438E0,-3.966701746E0,-2.595016241E0
1.557926775E0,6.699903488E0,-3.367299557E0,-1.251446247E0
1.562703493E0,7.734799385E0,-2.816950560E0,3.601198196E-1
1.567480212E0,8.584849358E0,-2.458027124E0,1.012762189E0
1.572243598E0,8.809176445E0,-2.303689957E0,1.237089276E0
1.577033650E0,7.935796261E0,-2.132004976E0,7.537391037E-2
1.581810368E0,7.434499741E0,-2.133201361E0,-1.854437590E-1
1.586573754E0,1.019641590E1,-4.351946354E0,-2.464607358E-1
1.591363806E0,1.108594704E1,-6.166304111E0,-3.750749528E-1
1.596140525E0,9.813564301E0,-6.564110756E0,-1.136590764E-1
1.600903910E0,8.206783295E0,-5.696114540E0,-2.590230405E-1
1.605693962E0,8.187042236E0,-5.035695076E0,-1.584646821E0
1.610470681E0,8.578866959E0,-4.981258392E0,-2.815155745E0
1.615234066E0,8.371888161E0,-4.880760193E0,-3.260220766E0
1.620024118E0,7.904689789E0,-4.432703972E0,-3.963710785E0
1.624800837E0,7.073781967E0,-4.054637909E0,-4.247260094E0
1.629564223E0,8.345566750E0,-3.848855257E0,-4.609174728E0
1.634354275E0,8.638090134E0,-3.809971809E0,-4.217350006E0
