Time (s),Acceleration x (m/s^2),Acceleration y (m/s^2),Acceleration z (m/s^2)
6.000072917,0.9289502501,-8.41591835,5.028122902
6.00207295,1.029506683,-8.49253273,5.159803867
6.00407295,1.149216771,-8.56914711,5.272331238
6.00607295,1.280897856,-8.640973091,5.339369297
6.00807255,1.419761658,-8.719982147,5.332186222
6.01007255,1.546654344,-8.794201851,5.281908035
6.01207255,1.673547029,-8.870816231,5.138256073
6.01407255,1.786074519,-8.945036888,4.965873718
6.01607255,1.89620769,-9.021651268,4.71657753
6.018072516,1.994369984,-9.100660324,4.412513733
6.020072149,2.073378563,-9.172486305,4.127603531
6.022072115,2.128445387,-9.24191761,3.835511208
6.024072081,2.164358377,-9.304166794,3.581725836
6.026072047,2.169146776,-9.368810654,3.363853455
6.028072013,2.133233786,-9.438241959,3.193865061
6.030071979,2.085349798,-9.500492096,3.062183857
6.032072612,1.996764183,-9.567529678,2.961627483
6.034073278,1.869871497,-9.629778862,2.870647907
6.036073311,1.742978811,-9.677662849,2.786850691
6.038073344,1.584961534,-9.713575363,2.693476915
6.040073377,1.414973259,-9.727940559,2.590526342
6.04207341,1.256955862,-9.732728958,2.49236393
6.044073443,1.091755986,-9.715970039,2.384624958
6.046073876,0.9457096457,-9.689633369,2.286462545
6.048073876,0.7900865674,-9.634567261,2.188300371
6.050073876,0.6488286853,-9.579500198,2.106897593
6.052073842,0.5243301988,-9.522039413,2.049436569
6.054073375,0.4046200812,-9.450213432,2.037465572
6.056073341,0.2729389966,-9.366415977,2.08295536
6.058073307,0.1268926859,-9.2802248,2.195482969
6.060073273,0.0,-9.198822021,2.327163935
6.062073239,-0.1221042871,-9.122207642,2.511517525
6.064073239,-0.2298433632,-9.057564735,2.698265314
6.066073272,-0.3303998411,-9.004891396,2.923320293
6.068073538,-0.423773706,-8.971372604,3.162740469
6.070073571,-0.5051765442,-8.952219009,3.38300705
6.072073604,-0.586579442,-8.959402084,3.596091032
6.074073637,-0.6560112834,-8.976161003,3.780444384
6.07607367,-0.7134721279,-9.012074471,3.945644379
6.078073703,-0.7685387731,-9.074323654,4.096478939
6.080073536,-0.8116343617,-9.143755913,4.23294878
6.082073536,-0.8499416113,-9.246706009,4.38617754
6.084073536,-0.8786720037,-9.373599052,4.568136692
6.086073536,-0.9002198577,-9.495702744,4.745307922
6.088073536,-0.921767652,-9.634567261,4.949114323
6.090073536,-0.940921247,-9.778219223,5.174169064
6.092073536,-0.9600749016,-9.907505989,5.380070686
6.094073536,-0.9672574997,-10.03679276,5.600337029
6.096073502,-0.9504981041,-10.1493206,5.808632374
6.098073468,-0.8978256583,-10.26424217,6.081571579
6.100073934,-0.8355764151,-10.36240387,6.342539787
6.1020739,-0.7637503147,-10.44859505,6.589142323
6.104073866,-0.6560112834,-10.5228157,6.85250473
6.106073832,-0.5099649429,-10.58506489,7.096713066
6.108073798,-0.3280056417,-10.62576675,7.285854816
6.110073764,-0.1436520964,-10.65210247,7.410353661
6.112073764,0.07422025502,-10.66167927,7.419930458
6.114073797,0.2849099934,-10.66167927,7.367258072
6.11607383,0.5147533417,-10.64731407,7.192481041
6.118073863,0.739808321,-10.62576675,6.912359715
6.120074296,0.9313444495,-10.60661316,6.622661114
6.122074329,1.091755986,-10.59943008,6.26831913
6.124074362,1.216254473,-10.60661316,5.930737019
6.126074362,1.292868972,-10.64013195,5.569212437
6.128074128,1.323993564,-10.70477486,5.229235649
6.130074094,1.333570361,-10.77420712,4.946720123
6.13207406,1.316810966,-10.87236881,4.726154327
6.134074026,1.297657371,-10.98489666,4.57531929
6.136073992,1.283292055,-11.08784771,4.472368717
6.138073958,1.261744261,-11.19798088,4.448426723
6.140074358,1.237802267,-11.28656578,4.446032524
6.142074358,1.213860273,-11.35839176,4.458003521
6.144073858,1.180341482,-11.40627575,4.505887508
6.146073858,1.134851575,-11.43261242,4.589684486
6.148073858,1.103726983,-11.44697762,4.709394932
6.150073858,1.07739079,-11.45894814,4.836287498
6.152073858,1.046266198,-11.47331429,4.965873718
6.154073858,0.9983820915,-11.50204468,5.104737282
6.156073858,0.9528923035,-11.56189919,5.22684145
6.158073858,0.9433154464,-11.64569664,5.325003624
6.160073391,0.9600749016,-11.73188782,5.399224281
6.162073424,1.034295082,-11.83483791,5.447108269
6.164073457,1.130063176,-11.93300056,5.483021259
6.16607349,1.273715258,-12.04074001,5.494992256
6.168072856,1.443703651,-12.16523838,5.471050262
6.170072222,1.604115129,-12.28734207,5.437531471
6.172072255,1.78368032,-12.42381191,5.389647484
6.174071555,1.953668594,-12.55309868,5.341763496
6.176072288,2.147598982,-12.70393372,5.277119637
6.178071588,2.360682964,-12.87392139,5.18614006
6.180071388,2.559401512,-13.03193951,5.090372086
6.182071354,2.767697096,-13.19235039,4.956296921
6.184070654,2.97599268,-13.33600235,4.783615112
6.186069954,3.162740469,-13.4533186,4.61362648
6.18806992,3.361459255,-13.52035618,4.34787035
6.190069253,3.529053211,-13.56345177,4.079719543
6.192069286,3.677493811,-13.58260536,3.821146011
6.194069319,3.833117008,-13.56105804,3.53384161
6.196069352,3.974374771,-13.51556778,3.215412855
6.198069518,4.098873138,-13.4485302,2.877830505
6.200069551,4.199429989,-13.37670422,2.564189911
6.202069584,4.27125597,-13.29290676,2.219424963
6.204070117,4.316745758,-13.16601467,1.89620769
6.20607015,4.338293552,-12.98884392,1.529894829
6.20807015,4.34787035,-12.78294182,1.122880578
6.21007015,4.352658749,-12.58901215,0.7350199223
6.21207015,4.34787035,-12.37592793,0.2896983922
6.21407015,4.338293552,-12.1772089,-0.1268926859
6.21607015,4.321534157,-11.96173096,-0.5602431893
6.21807015,4.304774761,-11.72470474,-0.9600749016
6.220070116,4.278438568,-11.49965,-1.290474772
6.222070082,4.197035789,-11.24825859,-1.572990537
6.224070048,4.060565948,-10.96334839,-1.814804912
6.226070014,3.914519787,-10.69759274,-2.006340981
6.228070647,3.732560396,-10.40789413,-2.147598982
6.23007128,3.529053211,-10.13734913,-2.248155355
6.232071246,3.332728863,-9.83807373,-2.293645144
6.234071912,3.12203908,-9.510068893,-2.252943754
6.236071145,2.93529129,-9.208398819,-2.164358377
6.238071845,2.738966703,-8.849268913,-1.891419291
6.240072711,2.571372509,-8.523657799,-1.59932673
6.242072744,2.427720547,-8.229170799,-1.292868972
6.244073444,2.284068346,-7.925107002,-0.9050082564
6.246073977,2.147598982,-7.621043205,-0.4692635238
6.24807401,2.027888775,-7.316979885,-0.02394201607
6.25007471,1.934514999,-7.046434879,0.3591302633
6.25207471,1.872265697,-6.783072472,0.691924274
6.254074676,1.833958507,-6.550835133,0.9648633003
6.256074642,1.829170108,-6.316203594,1.182735682
6.258074475,1.855506301,-6.07917738,1.343147159
6.260074608,1.893813491,-5.866093636,1.458068848
6.262074574,1.958456993,-5.648221016,1.517923832
6.26407454,2.027888775,-5.451896667,1.549048543
6.266074506,2.118868589,-5.250783443,1.537077546
6.268074506,2.226607561,-5.052064896,1.503558636
6.270074539,2.334346771,-4.874594688,1.470039845
6.272074572,2.463633537,-4.704606533,1.441309452
6.274074605,2.616862535,-4.556165695,1.414973259
6.276074638,2.767697096,-4.431667328,1.388636947
6.278074671,2.949656487,-4.343081951,1.359906554
6.280074704,3.16034627,-4.30956316,1.331176162
6.282074737,3.361459255,-4.307168961,1.307234168
6.28407477,3.598485231,-4.369418144,1.290474772
6.28607477,3.821146011,-4.458003521,1.285686255
6.28807477,4.067748547,-4.666299343,1.331176162
6.29007477,4.276044369,-4.881777287,1.391031146
6.29207477,4.446032524,-5.104737282,1.467645645
6.29407477,4.565742493,-5.380070686,1.59932673
6.29607477,4.620809078,-5.684134007,1.798045516
6.298074736,4.608838081,-6.004957199,2.087743998
6.300074569,4.568136692,-6.297049522,2.389413357
6.302074535,4.467580318,-6.591536522,2.762908697
6.304074501,4.355052948,-6.85250473,3.11964488
6.306074634,4.197035789,-7.099107265,3.49553442
6.3080746,3.988739967,-7.316979885,3.852270603
6.310074566,3.778050184,-7.496544838,4.153939724
6.312074532,3.505111217,-7.635408401,4.412513733
6.314074532,3.229778051,-7.733570576,4.616020679
6.316074565,2.904166698,-7.779060364,4.759673119
6.318074598,2.564189911,-7.764695168,4.848258495
6.320074264,2.262520552,-7.721599579,4.908412933
6.322074297,1.958456993,-7.616254807,4.929960728
6.32407433,1.644816518,-7.460631847,4.910807133
6.326074363,1.367089152,-7.295432091,4.879383087
6.328074396,1.084573388,-7.079953671,4.814739704
6.330074396,0.8427590132,-6.833351135,4.747702122
6.332074362,0.6320692301,-6.601113319,4.675876141
6.334074328,0.4405331016,-6.340145588,4.582501888
6.336074294,0.2705447972,-6.095936775,4.455609322
6.33807426,0.1221042871,-5.796661377,4.302380562
6.340074226,0.0023942017,-5.521328449,4.149151325
6.342074192,-0.08858546615,-5.267542839,3.991134167
6.344074158,-0.1316810995,-4.999392509,3.782838583
6.346074158,-0.14844051,-4.721365929,3.538630009
6.348074191,-0.141257897,-4.429273129,3.270479441
6.350074224,-0.1197100878,-4.165910721,3.019088268
6.352074257,-0.06224924326,-3.897760391,2.741360903
6.35407429,0.004788403399,-3.655946016,2.482787132
6.356074323,0.117315881,-3.414131641,2.205059767
6.358074356,0.2633621991,-3.174711466,1.927332401
6.360073856,0.4118026793,-2.959233284,1.678335428
6.362073889,0.6105214357,-2.746149302,1.431732655
6.364073889,0.8690952063,-2.554613113,1.211466074
6.366073889,1.127668977,-2.358288765,1.00317049
6.368073889,1.424550056,-2.159569979,0.8140285611
6.370073889,1.697489023,-1.982398987,0.653617084
6.372073889,1.975216389,-1.807622313,0.5147533417
6.374073889,2.245761156,-1.63763392,0.3998316824
6.376073855,2.477998734,-1.489193439,0.3088520169
6.378073821,2.683900118,-1.326387763,0.2537853718
6.380073721,2.846705914,-1.182735682,0.2178723514
6.382073287,2.971204281,-1.053448796,0.1987187415
6.384073253,3.043030262,-0.9241618514,0.1987187415
6.386073219,3.064578056,-0.7996633649,0.215478152
6.388073185,3.055001259,-0.6871358752,0.2322375625
6.390073151,3.031059265,-0.5961562395,0.2466027737
6.392073151,2.995146275,-0.5243301988,0.2609679997
6.394073184,2.932897091,-0.4836287498,0.282515794
6.396073217,2.851494312,-0.4764461517,0.2992752194
6.39807325,2.758120298,-0.5075707436,0.3040636182
6.400073283,2.664746523,-0.5506663918,0.2992752194
6.402073316,2.549824715,-0.624886632,0.2777273953
6.404073349,2.432508945,-0.7110779285,0.2513911724
6.406073582,2.279279947,-0.8355764151,0.2106897533
6.408073582,2.097320795,-0.9959878922,0.1556231081
6.410073548,1.924938202,-1.158793569,0.09816227108
6.412073514,1.750161409,-1.371877551,0.03112462163
6.41407348,1.584961534,-1.651999116,-0.0359130241
6.416073446,1.436521053,-1.939303398,-0.09576806426
6.418073412,1.280897856,-2.312798738,-0.1532289088
6.420073378,1.134851575,-2.691082716,-0.2011129409
6.422073344,0.9528923035,-3.15795207,-0.2418143749
6.424073344,0.720654726,-3.715801001,-0.2681505978
6.426073377,0.5003881454,-4.266467571,-0.2801215947
6.42807341,0.2753331959,-5.090372086,-0.1939303428
6.430073143,0.08858546615,-5.88764143,-0.06703764945
6.432073176,-0.06703764945,-6.668150902,0.09816227108
6.434073209,-0.2322375625,-7.551611423,0.3782838583
6.436073242,-0.4405331016,-8.482955933,0.758961916
6.438073275,-0.6967126727,-9.438241959,1.194706678
6.440073275,-0.9457096457,-10.30733776,1.606509328
6.442073675,-1.218648672,-11.10460663,2.073378563
6.444073675,-1.465251446,-11.95694256,2.523488522
6.446073675,-1.699883223,-12.88828659,3.016694069
6.448073675,-1.912967205,-13.90342808,3.519476414
6.450074075,-2.097320795,-14.85422611,3.960009575
6.452074075,-2.276885748,-15.88133812,4.367023945
6.454074041,-2.442085743,-16.83423042,4.714183331
6.456074007,-2.609679937,-17.83979607,5.040093899
6.458073973,-2.755726099,-18.87169647,5.360917091
6.460073939,-2.873042107,-19.80304146,5.653009415
6.462073905,-2.964021683,-20.76311493,5.973832607
6.464073871,-3.035847664,-21.69206619,6.342539787
6.466073637,-3.090914488,-22.48694038,6.704063892
6.468073603,-3.129221678,-23.17407608,7.132626057
6.470073603,-3.16034627,-23.72474289,7.618649006
6.472073603,-3.191470861,-24.12696838,8.080730438
6.474073636,-3.232172251,-24.34963036,8.600272179
6.476073669,-3.265691042,-24.45736885,9.083900452
6.478073702,-3.265691042,-24.25146675,9.603442192
6.480073735,-3.241749048,-23.95937538,10.04158115
6.482073768,-3.189076662,-23.58348465,10.40549946
6.484073801,-3.062183857,-22.97296333,10.69280434
6.486073801,-2.887407303,-22.15893555,10.89631081
6.488073767,-2.707842112,-21.17970657,10.99686813
6.490074033,-2.549824715,-20.23878479,11.03756905
6.492073999,-2.398990154,-19.18773079,10.99686813
6.494073565,-2.262520552,-18.20850182,10.91785908
6.496073531,-2.11647439,-17.16702461,10.72871685
6.498073497,-1.956062794,-16.10160446,10.42225933
6.500073763,-1.802833915,-15.14392471,10.09185982
6.502073763,-1.613691926,-14.18354988,9.646537781
6.504073796,-1.424550056,-13.32882023,9.198822021
6.506073829,-1.197100878,-12.49084949,8.64576149
6.508073862,-0.940921247,-11.67442703,8.008903503
6.510073495,-0.6991068721,-10.95137787,7.41274786
6.512073528,-0.4189853072,-10.2426939,6.783072472
6.514073561,-0.07661445439,-9.553164482,6.141426563
6.516073594,0.2633621991,-8.945036888,5.574000835
6.518073627,0.6871358752,-8.356062889,5.061641693
6.52007396,1.201889277,-7.810185432,4.642356873
6.52207396,1.704671621,-7.343316078,4.311957359
6.52407396,2.276885748,-6.917148113,4.079719543
6.52607396,2.825158119,-6.548440933,3.921702385
6.52807396,3.500322819,-6.172551155,3.90254879
6.53007356,4.110844135,-5.842151642,3.928884983
6.53207356,4.673481941,-5.545270443,3.995922565
6.534073293,5.26514864,-5.248389244,4.125209332
6.536072359,5.84933424,-4.963479519,4.273650169
6.538072325,6.419154167,-4.697423935,4.400542736
6.540072291,6.919542313,-4.472368717,4.491522312
6.542072257,7.386411667,-4.302380562,4.510675907
6.544072223,7.786243439,-4.185064793,4.481945515
6.546072189,8.138191223,-4.165910721,4.343081951
6.548072189,8.42788887,-4.242525578,4.086902142
6.550072189,8.657732964,-4.352658749,3.801992416
6.552072222,8.827720642,-4.546588898,3.411737442
6.554072655,8.949825287,-4.757278919,3.016694069
6.556072688,9.000102997,-5.042488098,2.549824715
6.558072721,8.968978882,-5.382464886,2.063801765
6.560072754,8.892364502,-5.7104702,1.632845521
6.562072787,8.708010674,-6.091148376,1.216254473
6.564072787,8.442254066,-6.510133743,0.8427590132
6.566072753,8.174103737,-6.902782917,0.5315127969
6.568072719,7.786243439,-7.328950882,0.2513911724
6.570072685,7.419930458,-7.779060364,0.01197100803
6.572072651,7.075165272,-8.190863609,-0.1891419291
6.574072617,6.720823288,-8.614637375,-0.349553436
6.576072583,6.395212173,-8.995314598,-0.4477157295
6.578072549,6.151003361,-9.416694641,-0.4716577232
6.580072215,5.985803604,-9.792584419,-0.4501099288
6.582072248,5.892429829,-10.12537861,-0.3806780577
6.584072281,5.88764143,-10.43422985,-0.1436520964
6.586072314,5.899612427,-10.72632313,0.3591302633
6.588072347,5.856516838,-11.01123333,1.206677675
6.59007278,5.772719383,-11.27220058,2.142810583
6.592072813,5.547664642,-11.56908226,3.442862034
6.594073079,5.255571842,-11.86117458,4.750096321
6.596074012,4.750096321,-12.22748756,6.270713329
6.598074012,4.043806553,-12.67280865,7.814973831
6.600073545,3.313575268,-13.10855389,9.136572838
6.602073545,2.389413357,-13.59697056,10.22593498
6.604073545,1.319205165,-14.04947472,10.94658947
6.606073545,0.3040636182,-14.51155567,11.37754536
6.608073545,-0.8164227605,-14.94999409,11.35120964
6.610073545,-1.862688899,-15.32109547,11.1213665
6.612073511,-2.971204281,-15.63473606,10.51323891
6.614073477,-4.082113743,-15.8789444,9.627384186
6.616073443,-5.059247494,-16.06329727,8.739135742
6.618073409,-5.990592003,-16.13273048,7.568370819
6.620073375,-6.742371082,-16.14948845,6.490980148
6.622073341,-7.324162483,-16.11836433,5.487809658
6.624073307,-7.67850399,-15.99865437,4.393360138
6.626073307,-7.745541573,-15.80472374,3.256114244
6.628073307,-7.522881031,-15.51023674,2.11647439
6.63007334,-7.19487524,-15.19420242,1.103726983
6.632073373,-6.627449512,-14.85183144,0.1867477298
6.634073406,-6.016928196,-14.38466263,-0.8092401624
6.636073439,-5.222053051,-13.8172369,-1.798045516
6.638073472,-4.266467571,-13.17559147,-2.683900118
6.640073505,-3.339911461,-12.57464695,-3.390189648
6.642073505,-2.281674147,-11.93300056,-3.833117008
6.644073471,-1.273715258,-11.34642124,-4.065354347
6.646073437,-0.1771709323,-10.75505352,-3.881000996
6.648073403,0.9121908545,-10.19720459,-3.263296843
6.650073369,1.865083098,-9.732728958,-2.523488522
6.652073335,2.726995707,-9.35683918,-1.460463047
6.654073301,3.397372246,-9.107842445,-0.2082955539
6.656073267,3.888183594,-8.947430611,0.9481038451
6.658073267,4.161122322,-8.904335022,2.092532396
6.660075,4.206612587,-8.911518097,3.076549292
6.662075033,4.153939724,-8.995314598,3.847482204
6.664074899,3.936067581,-9.134179115,4.355052948
6.666074932,3.691859007,-9.277831078,4.683058739
6.668074965,3.371036053,-9.486125946,4.65193367
6.670074998,3.090914488,-9.680056572,4.527435303
6.672075031,2.846705914,-9.859622002,4.331110954
6.674075064,2.628833532,-10.03200436,3.991134167
6.676075064,2.420537949,-10.1636858,3.53384161
6.678075064,2.219424963,-10.2283287,2.968810081
6.680074964,2.042253971,-10.2522707,2.41335535
6.682074964,1.903390408,-10.20917511,1.778891921
6.684074964,1.795651317,-10.1445322,1.185129881
6.686074964,1.716642618,-10.03439903,0.5650315881
6.688074964,1.656787634,-9.885957718,-0.03830722719
6.690075864,1.606509328,-9.735123634,-0.5650315881
6.69207583,1.556231141,-9.545981407,-1.051054597
6.694075796,1.505952835,-9.361627579,-1.460463047
6.696075362,1.455674648,-9.160514832,-1.843535304
6.698075328,1.400607944,-8.961795807,-2.133233786
6.700075294,1.347935557,-8.789413452,-2.336740971
6.70207526,1.278503656,-8.631396294,-2.420537949
6.70407526,1.192312479,-8.485349655,-2.358288765
6.70607526,1.108515382,-8.358457565,-2.224213362
6.708075293,1.015141487,-8.238747597,-1.915361404
6.710075326,0.9169792533,-8.135796547,-1.429338455
6.712075359,0.8236053586,-8.042423248,-0.9145850539
6.714075392,0.7062895298,-7.980173588,-0.2585737705
6.716075425,0.5961562395,-7.941866398,0.3734954596
6.718075458,0.4716577232,-7.97059679,1.11569798
6.720074358,0.3663128614,-8.020874977,1.750161409
6.722074358,0.2777273953,-8.08791256,2.279279947
6.724074491,0.1867477298,-8.202834129,2.683900118
6.726074457,0.09337386489,-8.348880768,2.930502892
6.728074423,0.0,-8.516474724,3.043030262
6.730074389,-0.07900865376,-8.67209816,3.098097086
6.732074355,-0.1436520964,-8.822932243,3.105279684
6.734074321,-0.1915361285,-8.947430611,3.110068083
6.736074321,-0.2082955539,-9.043199539,3.134010077
6.738074354,-0.1867477298,-9.100660324,3.179499865
6.740074487,-0.14844051,-9.134179115,3.224989653
6.74207452,-0.06943184882,-9.12699604,3.258508444
6.744074553,0.02154781483,-9.107842445,3.27287364
6.746074586,0.14844051,-9.067141533,3.239354849
6.748074619,0.3040636182,-9.016862869,3.150769472
6.750073719,0.4548983276,-8.966584206,3.045424461
6.752073752,0.624886632,-8.913911819,2.904166698
6.754073752,0.7948749661,-8.863634109,2.755726099
6.756074185,0.9433154464,-8.820538521,2.626439333
6.758074185,1.072602391,-8.782231331,2.513911724
6.760074185,1.180341482,-8.753500938,2.425326347
6.762074185,1.26413846,-8.731952667,2.363077164
6.764074185,1.326387763,-8.719982147,2.331952572
6.766074185,1.362300754,-8.715193748,2.317587137
6.768074151,1.381454349,-8.731952667,2.351106167
6.770074117,1.391031146,-8.755894661,2.401384354
6.772074083,1.395819545,-8.784625053,2.466027737
6.774074049,1.405396342,-8.83729744,2.576161146
6.776074015,1.417367458,-8.918700218,2.724601507
6.778073981,1.424550056,-9.028834343,2.8969841
6.780073814,1.429338455,-9.134179115,3.055001259
6.78207378,1.414973259,-9.256282806,3.205836058
6.78407378,1.391031146,-9.373599052,3.330334663
6.786073813,1.33835876,-9.505280495,3.430891037
6.788073846,1.259350061,-9.648932457,3.493140221
6.790073879,1.175553083,-9.783007622,3.526659012
6.792074412,1.058237195,-9.921871185,3.517082214
6.794074445,0.940921247,-10.04876423,3.488351822
6.796074478,0.7996633649,-10.18044472,3.426102638
6.798074478,0.6392518282,-10.31691456,3.354276657
6.800074344,0.4836287498,-10.44141293,3.289633036
6.80207431,0.3184288144,-10.56830597,3.220201254
