Time (s),Acceleration x (m/s^2),Acceleration y (m/s^2),Acceleration z (m/s^2)
6.002529741,-0.4358177406084001,-0.563140563306072,-0.30180000175610694
6.007284585,-0.6055499263322899,-0.4515409038722834,-0.500075080426757
6.012039481,-0.7686639145060339,-0.343668005864372,-0.6949148929767563
6.016794325,-0.9236478110415904,-0.24007831209872085,-0.8851621996577324
6.021549221,-1.0690895002442842,-0.14124863712678057,-1.0697095883595868
6.026304064,-1.2036988378117617,-0.04756964480130347,-1.2475059633399415
6.03105896,-1.3263283121650733,0.04065961638852959,-1.4175627516332625
6.035813804,-1.435991792270131,0.12323602717384437,-1.5789598847943718
6.0405687,-1.5318810096279079,0.2000554774399282,-1.7308515942929938
6.045323544,-1.6133794585012293,0.2711146406766074,-1.8724720341023071
6.050078439,-1.6800734408245324,0.3365113847204293,-2.0031407148953266
6.054833283,-1.7317600296722062,0.3964437756968791,-2.122267702169009
6.059588179,-1.7684517766154508,0.4512076488672139,-2.22935849706712
6.064343023,-1.790378042703926,0.5011927382699383,-2.324018485121437
6.069097919,-1.7979828891826897,0.5468773762481812,-2.405956805891607
6.073852762,-1.7919195215788122,0.5888217937606084,-2.4749894667785113
6.078607658,-1.77304133873842,0.6276600723823094,-2.5310414984060703
6.083362502,-1.7423896960596155,0.6640908187270742,-2.574147928706805
6.088117398,-1.701178548905105,0.6988666513176935,-2.6044533419537514
6.092872241,-1.6507761972337445,0.732782608519779,-2.622209795983082
6.097627085,-1.592684404375459,0.7666636042042081,-2.627772909215902
6.102381981,-1.5285152089845353,0.8013510757486064,-2.6215960080187775
6.107136877,-1.4599657866380584,0.8376889870454404,-2.6042223359279437
6.111891721,-1.3887917446871445,0.8765093668744081,-2.576275443413264
6.116646616,-1.3167792513143346,0.9186175792757503,-2.538447974531811
6.12140146,-1.2457164093942739,0.9647775364255077,-2.491489134360673
6.126156356,-1.1773642903289943,1.015697075360126,-2.4361911614222644
6.1309112,-1.1134280447633425,1.0720137273264208,-2.373375149963624
6.135666044,-1.0555285071361424,1.1342811119829193,-2.3038765744437537
6.140420939,-1.0051747092308214,1.202956187354464,-2.228530866974636
6.145175835,-0.9637377130731278,1.278387579597707,-2.148159389559638
6.149930679,-0.9324261640876552,1.3608052039435599,-2.063556127188551
6.154685575,-0.9122639499777263,1.450311369893091,-1.9754754052870602
6.159440419,-0.9040703285650663,1.546873540573786,-1.8846209062488708
6.164195314,-0.9084428588036874,1.6503188890813798,-1.7916362258966705
6.168950158,-0.9257434339871254,1.7603307646750146,-1.6970971728554862
6.173705054,-0.956087675779533,1.8764471498808344,-1.6015059726320293
6.178459898,-0.9993379031643466,1.998061156908495,-1.5052874937855758
6.183214794,-1.0550998426103517,2.1244235793497697,-1.4087875659407005
6.187969637,-1.1227231953352654,2.254647483965069,-1.3122734088887262
6.192724533,-1.2013061248854255,2.3877147984146765,-1.2159361395122479
6.197479377,-1.2897036735749718,2.5224848247589633,-1.1198952699416664
6.202234273,-1.3865400598191984,2.6577045858188146,-1.0242050576102188
6.206989116,-1.4902247503039985,2.7920208920944636,-0.9288625173116316
6.211744012,-1.5989721417306586,2.9239940006170637,-0.8338168587990848
6.216498856,-1.7108246274207661,3.052112723347413,-0.7389800728661309
6.221253752,-1.8236787656775295,3.1748108309037373,-0.6442383561874863
6.226008596,-1.9353142111856698,3.2904845868379002,-0.549464042217226
6.230763491,-2.0434250197769863,3.3975112378140704,-0.4545276934353168
6.235518335,-2.145652892365368,3.4942682754691488,-0.35931000985231004
6.240273231,-2.2396218871615496,3.57915327624618,-0.2637132198570573
6.245028075,-2.3229741012726697,3.650604116087181,-0.16767164146646066
6.249782971,-2.3934058037709662,3.707119347737285,-0.07116113349630246
6.254537814,-2.4487034921429087,3.747278519895991,0.025792804552392704
6.25929271,-2.4867793423326874,3.769762209970859,0.12310847984283375
6.264047554,-2.5057055289027947,3.7733715360894506,0.22064314742752345
6.26880245,-2.50374690562069,3.757046909482035,0.3181899406632052
6.273557294,-2.4793915574735967,3.719885785375106,0.41547663496599124
6.278312189,-2.4313787621547576,3.6611591690846232,0.5121662401871911
6.283067033,-2.3587239319579174,3.580326634060674,0.6078593720912502
6.287821929,-2.26074014533479,3.4770496103056665,0.7020983138732563
6.292576773,-2.137055920717384,3.351202705094733,0.7943726449455679
6.297331669,-1.9876289331328052,3.2028828236969304,0.8841262864740481
6.302086512,-1.8127554260182568,3.0324158665397274,0.9707657911694618
6.306841408,-1.6130751256465523,2.8403607919865603,1.0536696882409753
6.311596252,-1.3895715227874053,2.6275108517827785,1.1321986826608952
6.316351148,-1.1435674448618014,2.3948918303511206,1.205706500391089
6.321106044,-0.8767159013240869,2.1437571502038817,1.2735511674557167
6.325860887,-0.5909862449860702,1.87557974399104,1.3351065103243345
6.330615783,-0.288645752334697,1.5920406388305244,1.3897736677519525
6.335370627,0.027763213420705743,1.2950142498964048,1.4369924097981956
6.340125523,0.3554502318001818,0.9865504368223216,1.4762520678526592
6.344880366,0.6914077609391215,0.6688534371542657,1.5071018894478754
6.349635262,1.032445632516684,0.34425785460517777,1.5291606423787478
6.354390106,1.3752286973861803,0.015201944998313599,1.54212530285578
6.359145002,1.7163171538640272,-0.3158014916423495,1.5457786710549777
6.363899846,2.0522090339300756,-0.6461962396519393,1.539995764518897
6.368654741,2.379384271697479,-0.9734153813124886,1.524748847093484
6.373409585,2.694349736822413,-1.2949151015006757,1.500110961622285
6.378164481,2.993684586085326,-1.6082090370100666,1.4662578522060983
6.382919325,3.2740852710050032,-1.9109025794281256,1.4234681894692798
6.387674221,3.5324095381891905,-2.2007265049565237,1.372122050732371
6.392429064,3.7657187706444706,-2.475569279808439,1.3126976537182942
6.39718396,3.971318039728185,-2.7335073774731837,1.2457663917060284
6.401938804,4.146793265918702,-2.9728329461206853,1.17198626298665
6.4066937,4.290044920244363,-3.192078182599028,1.0920938229060915
6.411448544,4.399317736913444,-3.39003580528524,1.006894811433553
6.416203439,4.473225952807142,-3.5657750722852333,0.9172536256237581
6.420958283,4.510773643145735,-3.7186528644530865,0.8240818186680815
6.425713179,4.5113697868209455,-3.848319444432867,0.7283258186092977
6.430468023,4.47483777078972,-3.9547186130817256,0.6309540714066894
6.435222919,4.401419130366475,-4.0380821120842585,0.5329438246208618
6.439977762,4.291771419559618,-4.098918263872513,0.43526777861483307
6.444732658,4.146960210050554,-4.137994993132579,0.3388808405175953
6.449487502,3.9684453259483194,-4.156317532805071,0.2447072206121119
6.454242398,3.758061531109747,-4.1551012749962775,0.15362810953440523
6.458997241,3.5179939936467166,-4.135740376041437,0.06647016621193759
6.463752137,3.250748954914381,-4.099772856976744,-0.016004970000467404
6.468507033,2.9591201238133857,-4.048843048245213,-0.09310995380859047
6.473261877,2.6461513973209816,-3.984662304824686,-0.16423963664732644
6.478016773,2.3150965709345988,-3.9089689622063224,-0.22887747407772807
6.482771616,1.9693767456555622,-3.8234885147187287,-0.286600351271098
6.487526512,1.61253616050095,-3.7298949776799275,-0.3370817764728175
6.492281356,1.2481971821208668,-3.6297743470945183,-0.3800934271476577
6.497036252,0.8800151678355497,-3.524590998983301,-0.41550506576922097
6.501791096,0.5116338878608957,-3.4156577790022404,-0.44328287151127155
6.506545991,0.14664214949256002,-3.3041104258190703,-0.4634862602152054
6.511300835,-0.21146778662135046,-3.19088685268228,-0.4762632878736822
6.516055731,-0.5593394675723201,-3.0767116844885,-0.48184475256602516
6.520810575,-0.8937887200974949,-2.962086316029958,-0.48053712654187286
6.525565471,-1.2118369330452046,-2.8472846244485774,-0.47271446434439635
6.530320314,-1.5107408173435322,-2.7323543385269957,-0.45880944493128717
6.53507521,-1.7880183777866043,-2.6171239423040977,-0.4393037160622881
6.539830054,-2.0414708980281495,-2.5012148731725907,-0.4147177179223196
6.54458495,-2.2692008063628823,-2.3840586671503736,-0.3856001698902929
6.549339794,-2.4696253543921265,-2.264918607989874,-0.3525174091678046
6.554094689,-2.6414861026127956,-2.14291535338002,-0.31604277219460536
6.558849533,-2.783854265440215,-2.017055941574508,-0.2767462090335287
6.563604429,-2.8961320223604354,-1.8862655259735575,-0.23518431702932513
6.568359325,-2.9780499511273995,-1.7494211439069698,-0.19189097301668423
6.573114169,-3.029660782643307,-1.6053867993008293,-0.14736873321674576
6.577869064,-3.0513297150106027,-1.4530491269871542,-0.10208115677705894
6.582623908,-3.043721556008817,-1.2913529087874436,-0.05644619277984044
6.587378804,-3.007784988854274,-1.1193357275308422,-0.010830751653980498
6.592133648,-2.9447342755586243,-0.9361610739197701,0.034453439438596925
6.596888544,-2.856028725601273,-0.7411492614558072,0.07915262115403844
6.601643387,-2.743350265207555,-0.5338055552328212,0.12307237559726884
6.606398283,-2.608579444744649,-0.3138449800671251,0.1660775648101323
6.611153127,-2.453770219207312,-0.08121334089392121,0.2080908375729348
6.615908023,-2.281123829950005,0.16389593781865852,0.24908973622405195
6.620662866,-2.092962105018221,0.42102946826377996,0.2891024634042145
6.625417762,-1.891700480899442,0.6894662838493579,0.32820239607649715
6.630172606,-1.6798210306719503,0.9682151011815991,0.3665014601621722
6.634927502,-1.459845762990976,1.2560165244127537,0.4041425030644724
6.639682346,-1.2343104338569777,1.5513501735733055,0.44129082273409376
6.644437241,-1.0057390894400096,1.852446637230137,0.47812503036416903
6.649192085,-0.776619534126417,2.1573040716914926,0.5148274389869877
6.653946981,-0.549379894057138,2.463709195033742,0.5515741819639023
6.658701877,-0.3263664232881499,2.769262355367263,0.5885252734415276
6.663456721,-0.10982267779396619,3.071406289801199,0.625814827137226
6.668211616,0.09812983773705428,3.3674581342068923,0.6635416501966536
6.67296646,0.2955094636827566,3.6546441946908828,0.7017604252809568
6.677721356,0.4804905493783359,3.9301369501399823,0.740473686503984
6.6824762,0.6514179305974381,4.191093721694022,0.7796247834168313
6.687231096,0.8068196757939908,4.434696419879809,0.8190920120263295
6.691985939,0.9454180657180906,4.658191763666557,0.858684072956184
6.696740835,1.066138778292324,4.858931358038478,0.8981369944917904
6.701495679,1.1681182559622507,5.034411017873497,0.9371126327061323
6.706250575,1.2507092364985715,5.182308735907705,0.9751988326648029
6.711005419,1.3134844309277898,5.300520711179692,1.011911304578559
6.715760314,1.3562383344358588,5.387194881289471,1.046697237537452
6.720515158,1.378987158176293,5.4407614366216315,1.0789406418332688
6.725270054,1.3819668722057774,5.459959836733286,1.1079693792259304
6.730024898,1.3656293524487266,5.443861897608098,1.133063808825385
6.734779794,1.330636627956557,5.391890572641258,1.1534669443935506
6.739534637,1.2778532293753326,5.303834109410666,1.168395986861227
6.744289533,1.2083366463064706,5.179855328032479,1.1770550642048259
6.749044377,1.1233259110079556,5.0204958347634,1.1786489807346983
6.753799273,1.0242283393900593,4.826675055989063,1.1723977512574182
6.758554116,0.9126044780340229,4.599684052187593,1.1575516746913583
6.763309012,0.7901513280519612,4.3411741481107455,1.1334066880073237
6.768063908,0.6586839423339598,4.053140493403536,1.0993197349006336
6.772818752,0.5201155207792056,3.7379007461702467,1.0547238833566401
6.777573648,0.3764361569777867,3.3980691493487445,0.9991429309946211
6.782328491,0.22969041829336062,3.0365263446824162,0.9322052458157555
6.787083387,0.08195396869562604,2.6563853399503796,0.8536566021228736
6.791838231,-0.06469053034896886,2.260954110333739,0.7633717864500604
6.796593127,-0.20817798146178204,1.8536953728902712,0.6613647657824218
6.801347971,-0.34648559424006814,1.4381841227685734,0.5477972292968772
6.806102866,-0.47765751002350326,1.018063559843742,0.4229853339721601
6.81085771,-0.5998289953939334,0.5970000638494577,0.2874045019940899
6.815612606,-0.7112498827131891,0.17863789392493465,0.141692132632971
6.82036745,-0.8103069325289843,-0.2334457057900036,-0.01335189640558663
6.825122346,-0.8955447938790234,-0.6357843193764068,-0.17676705063738887
6.829877189,-0.9656852443922531,-1.0250644343235882,-0.34743637961091156
6.834632085,-1.0196444030584162,-1.3981651511942141,-0.5240932502538209
6.839386981,-1.0565476249239545,-1.7521949399800159,-0.7053306161299038
6.844141825,-1.0757418087328534,-2.0845249046662513,-0.8896128289991317
6.848896721,-1.0768048756818116,-2.3928180755567774,-1.07528995565336
6.853651564,-1.0595522104354331,-2.675054314538404,-1.2606145139773772
6.85840646,-1.0240398950132963,-2.929550490307511,-1.4437604889259608
6.863161304,-0.9705646125163226,-3.15497565715669,-1.6228444333311833
6.8679162,-0.8996601506639413,-3.3503610507764563,-1.7959484018460043
6.872671044,-0.8120904937772766,-3.5151047963690694,-1.9611444103930284
6.877425939,-0.7088395545792069,-3.648971307111366,-2.1165200596559597
6.882180783,-0.5910976621123893,-3.752085433780295,-2.26020491088207
6.886935679,-0.46024498728394453,-3.824921508530797,-2.3903971570993128
6.891690523,-0.3178321511123484,-3.8682875069933975,-2.5053900952406156
6.896445419,-0.16555832064648265,-3.8833046328386,-2.6035978800605317
6.901200262,-0.005247151389900535,-3.8713827074216023,-2.683580038628977
6.905955158,0.16117902002726978,-3.8341918229716203,-2.74406425397212
6.910710054,0.3317262964700892,-3.7736307884636284,-2.7839669887742606
6.915464898,0.5043571995730901,-3.6917929588091916,-2.8024116024997467
6.920219794,0.6770190493176197,-3.590930085907079,-2.798743698484393
6.924974637,0.8476722935535734,-3.4734148609732234,-2.77254350679679
6.929729533,1.014318352636327,-3.341702829903312,-2.7236351600723254
6.934484377,1.175026563817223,-3.1982943576675886,-2.6520927574445423
6.939239273,1.3279598316795118,-3.045697295766951,-2.5582431431554093
6.943994116,1.471398614934699,-2.8863909710841913,-2.4426653574661112
6.948749012,1.6037629075319457,-2.7227920674975445,-2.3061867521098542
6.953503856,1.7236319044681003,-2.5572229154621704,-2.149875802636885
6.958258752,1.8297610803217637,-2.391882641072131,-1.9750316956070164
6.963013596,1.9210964508772397,-2.228821556266064,-1.7831708181488406
6.967768491,1.9967858341341729,-2.06991909707881,-1.5760103283986555
6.972523335,2.0561869751518884,-1.9168655384183844,-1.3554490348399
6.977278231,2.0988724482476124,-1.7711476331346154,-1.1235458577486845
6.982033075,2.1246312990021288,-1.6340382417238084,-0.8824961843601206
6.986787971,2.1334674366790174,-1.5065899386859192,-0.63460645920153
6.991542814,2.125594834906911,-1.3896325042697566,-0.3822673713985057
6.99629771,2.101429645153436,-1.2837741380858427,-0.12792601178314014
7.001052554,2.0615793741651434,-1.1894061656835153,0.12594262464772876
7.00580745,2.0068293234289256,-1.1067109522291838,0.37686441938393184
7.010562346,1.9381265354232866,-1.0356726900103066,0.6223948316187254
7.015317189,1.8565615366873955,-0.9760906892793988,0.8601471698018396
7.020072085,1.7633482094662065,-0.9275947751680303,1.0878200974060563
7.024826929,1.6598021594193695,-0.8896623768914401,1.3032240514396434
7.029581825,1.5473179743171366,-0.8616368887480063,1.5043062667817817
7.034336669,1.427345786212879,-0.8427468847639095,1.689174113972037
7.039091564,1.3013675567524539,-0.832125779419189,1.8561164734088822
7.043846408,1.1708735025965815,-0.8288315449546955,2.003622886046371
7.048601304,1.037339066673785,-0.831866120633577,2.130400240616903
7.053356148,0.9022028225942514,-0.8401941803553482,2.2353867809330015
7.058111044,0.7668456750950577,-0.852760961432905,2.317763244417579
7.062865887,0.632571689266783,-0.8685088982388053,2.3769609747810456
7.067620783,0.5005908454783302,-0.8863928487706347,2.4126668873806607
7.072375627,0.37200397531836,-0.9053937488145308,2.4248252046298373
7.077130523,0.24779008684973156,-0.9245305760160576,2.4136359201409165
7.081885366,0.12879623585703154,-0.942870553431431,2.3795499933992157
7.086640262,0.015730044779748403,-0.9595375676752486,2.323261321107629
7.091395106,-0.0908450858014631,-0.9737188193781243,2.2456955765040223
7.096150002,-0.1905120851617207,-0.9846697623055763,2.1479960536920597
7.100904898,-0.28299970710536126,-0.9917174213820159,2.0315067001453957
7.105659741,-0.3681795301923246,-0.9942622084324083,1.8977525667756505
7.110414637,-0.4460606290723927,-0.9917783773401831,1.7484179508924218
7.115169481,-0.5167821229018543,-0.9838132774160169,1.5853225524702317
7.119924377,-0.5806038401159282,-0.969985575206483,1.4103960076040938
7.124679221,-0.637895364653626,-0.9499826210471151,1.2256512038221445
7.129434116,-0.6891237472547783,-0.9235571378114567,1.0331568186684263
7.13418896,-0.734840177229909,-0.8905234060529887,0.8350095540953787
7.138943856,-0.7756659158211315,-0.8507531126541369,0.6333065629156208
7.1436987,-0.8122777925184904,-0.8041710197528575,0.43011857746885207
7.148453596,-0.845393560836101,-0.7507505976622779,0.22746425093676378
7.153208439,-0.8757573998726205,-0.6905097502699742,0.027286202008093317
7.157963335,-0.9041258311766697,-0.6235067444499313,-0.16857079445673323
7.162718179,-0.9312542948617041,-0.5498364365907087,-0.3583791090320497
7.167473075,-0.9578845932201546,-0.46962686955627325,-0.5405447962701971
7.172227919,-0.9847333655007624,-0.38303629250837357,-0.7136212273154948
7.176982814,-1.012481707777709,-0.29025063456979566,-0.8763197722186511
7.18173771,-1.0417660014382506,-0.1914814419603343,-1.0275175624526478
7.186492554,-1.0731699663708127,-0.08696426759567176,-1.1662624167617313
7.19124745,-1.1072179128356727,0.023042517188738607,-1.291775050171905
7.196002294,-1.1443691307784605,0.13825853634223875,-1.403448712834386
7.200757189,-1.1850133280900552,0.2583819098974486,-1.5008464264734251
7.205512033,-1.2294670108089536,0.38308951359392657,-1.583696004113934
7.210266929,-1.2779706888681557,0.5120370744298607,-1.6518830553044022
7.215021773,-1.3306867904525979,0.64485917964429,-1.705442195569441
7.219776669,-1.3876981754204452,0.7811692721200414,-1.7445466957424185
7.224531512,-1.4490071520799668,0.9205596961528235,-1.7694968232526351
7.229286408,-1.514534920127533,1.062601844668743,-1.7807071414630724
7.234041252,-1.5841213839048356,1.2068464433356922,-1.7786930426744465
7.238796148,-1.6575253026498644,1.3528239898930114,-1.764056793858302
7.243550991,-1.7344247667308945,1.50004534977473,-1.7374733707063672
7.248305887,-1.8144180099356684,1.6480024929874253,-1.6996763449245456
7.253060731,-1.8970245869554143,1.7961693433655919,-1.6514440721183792
7.257815627,-1.9816869615460364,1.944002700823646,-1.5935864039516032
7.262570471,-2.0677725636683464,2.0909431909711897,-1.5269321198979018
7.267325366,-2.154576382323974,2.236416195059331,-1.452317242555312
7.27208021,-2.241324164102461,2.3798327168325666,-1.3705743678675744
7.276835106,-2.327176285446242,2.520590151194235,-1.2825231091923377
7.28158995,-2.4112323598084973,2.658072932089454,-1.188961723145326
7.286344846,-2.492536630205261,2.7916530529575394,-1.090659956350644
7.291099741,-2.5700841842600353,2.920690471689435,-0.9883531261514931
7.295854585,-2.642828013685828,3.044533432295843,-0.8827374253342626
7.300609481,-2.709686924023749,3.1625187563666777,-0.7744664213198703
7.305364325,-2.769554283945694,3.273972177714666,-0.6641487043663216
7.310119221,-2.8213075869332593,3.378208812162867,-0.5523466272024562
7.314874064,-2.8638187819181007,3.4745338701314457,-0.4395760699387476
7.31962896,-2.8959653136841013,3.5622437314736564,-0.3263071584713523
7.324383804,-2.9166417986445174,3.6406275089702858,-0.21296586101608145
7.3291387,-2.924772247179239,3.7089692281941846,-0.0999363848621669
7.333893544,-2.9193227302024134,3.766550746491071,0.012435707026027339
7.338648439,-2.899314375133746,3.812655522324463,0.12383974303130932
7.343403283,-2.863836564999518,3.846573328352169,0.23399564115082694
7.348158179,-2.812060203994281,3.867605977878367,0.3426491513993793
