Time (s),Acceleration x (m/s^2),Acceleration y (m/s^2),Acceleration z (m/s^2)
9.00025612,0.38613455808185576,-0.058480042316566394,-0.5714020984315208
9.005256153,0.4663757346106428,-0.04797286882665633,-0.6243075737515812
9.010256186,0.5477631563453979,-0.0398591155757283,-0.6792651369935064
9.015256186,0.629478855336725,-0.034509480349173983,-0.7362583681154964
9.020256186,0.710686013008717,-0.0322597419584018,-0.7951815249154655
9.025256152,0.7905423632020552,-0.033405628116548534,-0.855837605829354
9.030256152,0.8682129528200274,-0.038198097427230224,-0.9179382831584038
9.035256152,0.9428819206681861,-0.046839071199367234,-0.9811056821949609
9.040256185,1.0137630181401613,-0.05947762184289049,-1.044875962418876
9.045256418,1.0801086727518392,-0.07620660679998577,-1.1087046494469739
9.050256418,1.1412174829813568,-0.09705973470870502,-1.1719736695050176
9.055256384,1.1964401259066664,-0.12200906501208154,-1.2340000464260625
9.060255684,1.2451837516607926,-0.15096297119313934,-1.2940462266403974
9.06525475,1.2869150231267663,-0.18376463597697998,-1.3513319925269756
9.070254316,1.3211620282169363,-0.2201911876625293,-1.4050479032689975
9.075253449,1.3475153401532787,-0.25995362385492526,-1.4543701627166135
9.080252815,1.3656285253646478,-0.30269769639807415,-1.4984767571492736
9.085252181,1.3752183977451613,-0.34800594383283856,-1.536564636983977
9.090251514,1.3760652923900738,-0.39540105078767834,-1.567867641961494
9.095250614,1.368013583843999,-0.44435068513407033,-1.5916747958697586
9.10024968,1.3509726081638587,-0.49427391461075515,-1.6073485302744288
9.10524878,1.3249180713189597,-0.544549239039838,-1.6143423416467655
9.11024878,1.289893945230845,-0.5945241974868575,-1.6122173460194307
9.115248146,1.2460147724928938,-0.6435264263718885,-1.6006571721675327
9.120248179,1.193468226202154,-0.6908759583421535,-1.5794806305245512
9.125248179,1.1325177075141106,-0.7358984665500107,-1.548651613614226
9.130247512,1.0635047158268571,-0.7779390798365554,-1.5082857285159335
9.135247512,0.9868506988349293,-0.8163763275607246,-1.4586532364958198
9.140246845,0.9030580832575857,-0.8506357259644981,-1.4001779817821214
9.145246178,0.8127102001913751,-0.8802024988253385,-1.3334321301372745
9.150246144,0.7164698482678992,-0.90463293992787,-1.2591267039773317
9.155246144,0.6150762793332774,-0.9235639761882753,-1.1780980854025342
9.160246144,0.5093404419128201,-0.9367205759313729,-1.0912908487606459
9.165246177,0.4001383741830912,-0.9439207599911311,-0.9997374650293712
9.170246177,0.28840269811068553,-0.9450781035729576,-0.9045355764378212
9.175246177,0.17511222956994033,-0.9402017519924101,-0.8068236594376297
9.180246143,0.061279787238854515,-0.9293941009322246,-0.7077559694303603
9.185246109,-0.052061643457698877,-0.9128463995854924,-0.6084776865913611
9.190246075,-0.16387415839430666,-0.8908326123396773,-0.5101011556775596
9.195246075,-0.2731312860360688,-0.8637019143948741,-0.41368403300403395
9.200246108,-0.3788350627445975,-0.831870197132071,-0.3202100237250577
9.205246141,-0.48003339213218665,-0.7958109239549864,-0.2305727210929917
9.210246841,-0.5758372020134516,-0.7560456148065585,-0.14556286239519134
9.215247741,-0.6654368837626626,-0.7131341582300681,-0.06585911457135607
9.220248174,-0.7481174896692311,-0.6676650655479068,0.007977682681980769
9.22524904,-0.8232721751821593,-0.6202457048798866,0.07550704009093882
9.230249706,-0.8904134058813271,-0.5714924954855953,0.13640843982470963
9.235250372,-0.9491815042978119,-0.5220210152026183,0.19047844728512286
9.240251072,-0.9993501887122707,-0.4724359807627619,0.23762572565744444
9.245252005,-1.0408288532656178,-0.42332110178605475,0.2778643515245252
9.250252905,-1.073661454214325,-0.3752288777500727,0.31130579642654266
9.255252905,-1.0980219974266436,-0.3286704915368066,0.338149899264453
9.260252871,-1.1142067597587426,-0.28410603813343543,0.35867511747644054
9.265253504,-1.122623509921848,-0.24193539722105864,0.3732283150533734
9.27025347,-1.1237781097941935,-0.202490101292389,0.3822143222117543
9.27525347,-1.1182589651216068,-0.1660265593859141,0.38608548221953026
9.28025417,-1.1067198513339738,-0.1327209691417673,0.38533138237098524
9.285254203,-1.0898616674598376,-0.10266619077884728,0.3804689455846307
9.290254903,-1.0684136742982833,-0.07587077435834057,0.37203303446828173
9.295255569,-1.043114759255118,-0.052260237748101436,0.3605676904237798
9.300255569,-1.0146952461665821,-0.031680599114276606,0.34661809757212414
9.305255535,-0.9838597379513331,-0.013904085066857088,0.33072332668457455
9.310255501,-0.9512714433813387,0.0013631295203589615,0.31340987941471893
9.315255467,-0.9175383944699987,0.014471340530188495,0.2951860202233539
9.320255467,-0.883201905611125,0.02581611603026798,0.2765368572326574
9.3252555,-0.8487275587944908,0.03582573255363725,0.2579201206065689
9.330255533,-0.8144989217710332,0.044947533406945774,0.23976259308219947
9.335255566,-0.780814120383156,0.05363354346748402,0.22245717136202198
9.340255566,-0.747885296590424,0.06232573521915608,0.20636057150545306
9.345255566,-0.7158408951350269,0.0714414078096803,0.19179172334380698
9.350255532,-0.6847306388078291,0.08135920333084927,0.17903091383275538
9.355255532,-0.654532977647731,0.09240632836401187,0.16831972574430576
9.360255532,-0.6251647316881817,0.10484756044599582,0.15986177305586974
9.365255565,-0.5964925883810243,0.11887658812472449,0.15382416614605618
9.370255598,-0.5683460617189973,0.13461015470009974,0.150339566064132
9.375255598,-0.5405314686312054,0.15208535103811846,0.14950862763293696
9.380255564,-0.5128464309299198,0.17126024035895593,0.1514026006879982
9.38525553,-0.48509437269126743,0.19201781254325076,0.156065862126271
9.390255496,-0.45709845958035866,0.21417307668275506,0.16351818277707306
9.395255462,-0.42871442322271675,0.2374829280273632,0.17375657938225425
9.400255462,-0.39984173223989633,0.2616582839889632,0.18675664933355923
9.405256362,-0.37043261120467236,0.2863778799933093,0.20247332584273023
9.410256395,-0.3404984681584974,0.31130304847762175,0.22084102380775336
9.415256428,-0.3101133707634328,0.3360927680918056,0.24177317824463224
9.420256428,-0.2794143127690041,0.36041826087597667,0.2651612158115163
9.425256428,-0.24859813838001865,0.3839764328920579,0.29087304981926027
9.430256394,-0.21791514209477578,0.40650150420366893,0.31875124739818556
9.435256394,-0.18765953119149026,0.4277742665072227,0.3486110751103327
9.440256394,-0.15815711708917427,0.4476285477837673,0.38023867409477613
9.445256427,-0.12975077403879237,0.4659546495890915,0.41338963579951044
9.450256427,-0.10278434885353394,0.48269973654151227,0.4477882354413953
9.455256427,-0.07758580428670077,0.4978653704022024,0.4831275296014757
9.460256427,-0.05445041810540541,0.5115025606491337,0.5190704429831221
9.465256427,-0.03362483708934669,0.523704823218074,0.5552518734453686
9.470256427,-0.015292708290757052,0.5345997854712131,0.591281756543205
9.475256393,0.0004375046295010321,0.5443398506115467,0.6267489724837487
9.480256393,0.013542043557971365,0.5530923563777578,0.6612259618324717
9.485256393,0.024088367162513384,0.5610295610708322,0.6942739390157289
9.490256426,0.032238407828306545,0.5683187004717706,0.7254486375562198
9.495256459,0.03824841051292372,0.5751123118992331,0.7543065626502973
9.500256459,0.04246525235485741,0.5815390283714245,0.7804117425312126
9.505256425,0.04531920802574061,0.5876950949599455,0.8033429502615161
9.510256391,0.04731321607367457,0.5936369222567232,0.8227013178829812
9.515256391,0.04900882498085763,0.5993750365793715,0.8381182013492438
9.520256391,0.051009147422178325,0.6048697902432,0.8492630962725202
9.525256424,0.053939308565401585,0.6100291495273238,0.8558513668236595
9.530256424,0.05842501717426455,0.6147087888577331,0.8576515413346435
9.535256424,0.06506999867377775,0.6187146034455614,0.8544919471196625
9.540256424,0.0744330976096024,0.6218076285566522,0.8462664941117701
9.545256424,0.0870058832046912,0.6237112373031531,0.8329394577453662
9.550256424,0.10319158291764323,0.6241203881156445,0.8145491430117343
9.55525639,0.12328613350991842,0.6227126082222524,0.7912103276424377
9.56025639,0.14746208292575896,0.619160327114585,0.7631153857198709
9.56525639,0.1757560006624671,0.6131441115470033,0.7305339928364546
9.570256423,0.20805995696643595,0.6043663023341364,0.6938113209979796
9.575256423,0.24411750915948452,0.592564518110708,0.6533646535543769
9.580256423,0.2835244866591718,0.5775244786312778,0.6096783892747886
9.585256389,0.32573469941471744,0.5590916146347126,0.5632974557954809
9.590256355,0.37007051568232074,0.5371809736002886,0.5148192080613093
9.595256321,0.41573807352107633,0.5117849981141573,0.46488393923595495
9.600256321,0.46184671448202963,0.4829788412000957,0.4141641748905092
9.605256354,0.5074320650250039,0.45092298554395877,0.36335295450933336
9.610256387,0.5514820484095286,0.4158630459584074,0.3131513280547292
9.61525642,0.592964994585539,0.3781267512971209,0.2642553105791316
9.620256453,0.6308589350381353,0.33811821694946276,0.21734254543950068
9.625256453,0.6641811293491726,0.29630972492287083,0.17305892738008766
9.630256419,0.6920168732855877,0.25323131869923804,0.13200543241839766
9.635256385,0.7135466826995368,0.20945858947877016,0.09472539541716424
9.640256385,0.7280710265855084,0.16559907633371615,0.06169247240833629
9.645256385,0.7350318864128081,0.12227772510656822,0.033299525848020234
9.650256418,0.7340305373749416,0.08012185237302583,0.009848677256750952
9.655256418,0.7248410725978419,0.03974604669540278,-0.00845721900031197
9.660256418,0.7074193187453217,0.0017374161657697116,-0.02152141883143958
9.665256384,0.6819069186461588,-0.03335843541133045,-0.029358185061667836
9.67025545,0.6486304830780536,-0.06505034804061859,-0.0320954857207818
9.675255416,0.6080958400115946,-0.09291313129094879,-0.02997527105939004
9.680255416,0.5609775354674796,-0.116597374373474,-0.023351154278914203
9.685255449,0.50810386418556,-0.13583727107122823,-0.012683385776024155
9.690255482,0.4504378270258042,-0.15045623132349725,0.001468912473146989
9.695255515,0.3890545204524867,-0.16037010443818864,0.018458203442205147
9.700255515,0.32511555662988784,-0.16558790484468788,0.0375615520082001
9.705255515,0.25984118735371975,-0.16621000792690765,0.057995995014925014
9.710255481,0.19448086059241385,-0.16242386602404718,0.07893598534049767
9.715255481,0.1302829757261676,-0.15449737713234876,0.09953256135843154
9.720255481,0.06846462340495497,-0.1427701156753856,0.11893382240562309
9.725255514,0.010182098369923245,-0.1276427021153261,0.13630621754560518
9.730255514,-0.043497041393604254,-0.10956464447328,0.15085608283850563
9.735255514,-0.09161962813520955,-0.0890210302902891,0.1618508013633509
9.740255514,-0.1333695598698328,-0.066518483431218,0.16863892387294632
9.745255514,-0.1680868779624989,-0.0425708269706407,0.1706685877622981
9.750255514,-0.19528271973474384,-0.017684909821199545,0.1675036121527219
9.75525548,-0.21464973494395753,0.00765294244926166,0.15883672209341423
9.760255446,-0.2260676909378553,0.03298940678398835,0.14449945298697606
9.765255446,-0.22960414070627538,0.057915160688876664,0.12446839353135415
9.770255446,-0.2255101815795291,0.0820740432066341,0.09886753131062065
9.775255479,-0.21421147950133176,0.10517009549149751,0.06796656498365566
9.780255479,-0.19629486509776473,0.12697228181042652,0.03217514152415651
9.785255479,-0.17249091678943151,0.14731677949093358,-0.00796692927011637
9.790255445,-0.14365303144161795,0.16610680957128443,-0.05180333106409957
9.795255411,-0.11073354798252108,0.18331005267839975,-0.09857850367817945
9.800255377,-0.07475754086883868,0.19895375442209073,-0.1474581183364549
9.805255377,-0.036794945918289156,0.2131176728245616,-0.19755222661965294
9.81025541,0.0020682736820317174,0.2259250619863395,-0.24794039396032824
9.815255443,0.04075916848025441,0.2375319284108199,-0.2976979928404303
9.820256376,0.07824626071910942,0.2481148464715847,-0.34592273601863394
9.825256376,0.11356661035425114,0.25785768252887936,-0.39176049983348665
9.830256376,0.14585069262652758,0.26693765304341477,-0.4344295317033274
9.835256342,0.17434434181836017,0.27551122304838405,-0.4732422427659364
9.840256342,0.19842710752270803,0.2837004234857896,-0.5076239258049192
9.845256342,0.217626496415648,0.2915802134609517,-0.5371278741141291
9.850256375,0.2316277225714008,0.29916752444385464,-0.5614464836829058
9.855256375,0.24027874903406526,0.3064125928477447,-0.5804179969616517
9.860256375,0.24359056053651224,0.31319311721103854,-0.59402861386112
9.865256341,0.2417327524477892,0.3193116728952829,-0.6024097910604387
9.870256307,0.23502464615647495,0.32449668865965725,-0.605830707009081
9.875256273,0.22392223996185023,0.3284071427126964,-0.6046860986880218
9.880256273,0.20900137769435212,0.3306409767712254,-0.5994799566945456
9.885256273,0.19093757724305913,0.33074706132704945,-0.5908058473009721
9.890256306,0.170483029312769,0.3282403810939373,-0.5793248518677593
9.895256339,0.14844137002118962,0.3226199546503162,-0.5657422277086207
9.900256372,0.12564094892491487,0.3133888638295678,-0.5507838846003106
9.905256372,0.1029074373696766,0.3000756515251603,-0.5351736541897627
9.910256372,0.08103672234925542,0.28225625482206096,-0.5196121421726216
9.915256338,0.0607690836048776,0.25957557737137565,-0.5047577373357311
9.920256338,0.04276564260935631,0.2317677752495662,-0.4912101434713252
9.925256338,0.027587998721521494,0.19867433915952068,-0.47949662318785724
9.930256371,0.015681836409488756,0.16025910706912325,-0.470061005185099
9.935256371,0.00736511061001174,0.11661943793417733,-0.4632554047136507
9.940256371,0.0028212102980816355,0.06799291892710742,-0.45933453196156965
9.945256371,0.002097276593554476,0.014759161243189699,-0.4584524096374049
9.950256371,0.005107620657638109,-0.042563546630955136,-0.4606612896982655
9.955256371,0.011641956067694826,-0.10332672885121942,-0.4659125524779381
9.960256337,0.02137794067790727,-0.1667651255234549,-0.47405938772117656
9.965256337,0.0338973286830323,-0.23201456390999678,-0.48486108803182665
9.970256337,0.048704881105470846,-0.2981336621152754,-0.4979888188443051
9.97525637,0.06524908602107839,-0.3641285729168994,-0.5130327542551261
9.98025637,0.08294370522520905,-0.42897985707425923,-0.5295104793740243
9.98525637,0.10118918920743858,-0.49167050005333757,-0.5468765584163041
9.990256336,0.11939307725989581,-0.5512140562248864,-0.5645331596128452
9.995256302,0.1369886109957603,-0.6066819203134758,-0.58184162081549
10.0002563,0.15345092481980144,-0.6572287844193908,-0.5981348391936464
10.00525634,0.1683103264528087,-0.702115434670457,-0.6127303756257099
10.01025637,0.1811623389855077,-0.7407281667701758,-0.6249441741182662
10.01525637,0.1916743402930476,-0.7725942460533765,-0.6341047992462451
10.02025637,0.19958880296159603,-0.7973929973648575,-0.6395680808749884
10.02525637,0.20472330287296459,-0.8149622760778059,-0.6407320210820769
10.03025637,0.2069676195636702,-0.8253002372093308,-0.6370517660044562
10.03525637,0.20627838760852416,-0.8285624788025622,-0.6280543833535072
10.04025633,0.20267186703660406,-0.8250547835748143,-0.6133531244330744
10.04525633,0.19621547452802487,-0.8152218154861115,-0.5926607963577745
10.05025633,0.1870187493869946,-0.7996322422284685,-0.5658018321618045
10.05525637,0.17522441455957058,-0.7789608478708593,-0.5327226278316047
10.06025637,0.16100013214138714,-0.7539682697638994,-0.4934997183755013
10.0652559,0.14453144835039256,-0.7254790390003035,-0.4483453905100287
10.0702552,0.12601628356742942,-0.6943586240270497,-0.39761037670209504
10.0752545,0.10566116233330089,-0.6614901732317989,-0.34178334271058564
10.0802538,0.08367921192644165,-0.6277516262642238,-0.2814869661471039
10.0852529,0.0602898007560371,-0.5939938182215392,-0.21747050296928142
10.09025223,0.03571955013081968,-0.5610201390587246,-0.15059884617745412
10.09525137,0.010204342225695072,-0.5295682362510411,-0.08183818920326731
10.1002514,-0.016008131974114635,-0.5002941649841688,-0.012238509476192233
10.10525073,-0.042655785055434874,-0.4737592996468306,0.0570868179191494
10.11024983,-0.06946001355953332,-0.4504202258149582,0.12498388115745865
10.1152489,-0.09612452500240472,-0.43062173638820145,0.19028309419162315
10.12024796,-0.12233552719520191,-0.414592962737974,0.251825516713161
10.12524706,-0.14776360273980604,-0.40244658528760213,0.30849002200981995
10.1302471,-0.17206747436639555,-0.3941809906755884,0.3592206444589197
10.13524646,-0.1948997317993057,-0.38968517610011505,0.4030533894967937
10.14024646,-0.21591444617852332,-0.3887461459384325,0.4391417555853405
10.14524646,-0.23477645327454316,-0.3910585008098247,0.46678020760924227
10.15024603,-0.2511719520917586,-0.39623588465342985,0.4854248619857933
10.1552451,-0.26481995069406955,-0.4038239319880025,0.49471070031672887
10.16024506,-0.2754840046109225,-0.41331434630250086,0.4944647196152805
10.16524506,-0.28298364144050114,-0.4241597401534013,0.4847145459362013
10.17024509,-0.2872048513337205,-0.4357888736602973,0.4656921746464637
10.17524513,-0.28810904605171817,-0.4476219358554849,0.4378326457962144
10.18024516,-0.2857399461061551,-0.45908552058662544,0.4017676116267475
10.18524516,-0.2802279421257221,-0.46962695672664273,0.35831390231638394
10.19024516,-0.2717915875874298,-0.4787276645861891,0.3084573428969888
10.19524513,-0.26073600827184873,-0.4859152298719373,0.25333221454359073
10.20024513,-0.24744815223160666,-0.4907739154613141,0.194196881528063
10.20524513,-0.23238894726266843,-0.49295337047079385,0.1324062159126424
10.21024516,-0.21608257585762292,-0.492175344748877,0.06938154234076233
10.21524563,-0.1991032135304672,-0.48823827292751676,0.006578893644298922
10.22024629,-0.18205969576515446,-0.48101965310758105,-0.05454358638046513
10.22524696,-0.1655786714086477,-0.47047620860349676,-0.11255823483625532
10.23024762,-0.15028685791228724,-0.45664188369701536,-0.16609960134466312
10.23524852,-0.1367930324700516,-0.439623782449888,-0.21389449415001502
10.24024919,-0.12567037424213212,-0.4195962108514032,-0.25478957150036785
10.24525006,-0.11743972333625292,-0.39679302669616273,-0.2877757898925209
10.25025006,-0.11255425265907078,-0.371498540033218,-0.31200912247662643
10.25525009,-0.11138597013475235,-0.34403724119870494,-0.32682707870098865
10.26025102,-0.11421438881929755,-0.31476266324093144,-0.33176068595226216
10.26525192,-0.12121762403388564,-0.2840457092669008,-0.32654173275140674
10.27025282,-0.13246609982030844,-0.2522627907639727,-0.31110521854390355
10.27525369,-0.14791897225484674,-0.21978412902087133,-0.2855871028430784
10.28025369,-0.16742330679814696,-0.18696256816912396,-0.2503175888981232
10.28525435,-0.19071598387001668,-0.15412323501073807,-0.2058103047949776
10.29025439,-0.217428252920791,-0.12155435696468228,-0.15274784947142026
10.29525439,-0.24709281012144269,-0.08949951423447262,-0.09196424735293679
10.30025479,-0.2791532364050092,-0.0581515559865106,-0.024424902387688196
10.30525569,-0.31297559821689686,-0.02764835525331388,0.04879533705702523
10.31025569,-0.347861980582684,0.001929483095760836,0.12653539242598902
10.31525569,-0.3830656891471058,0.030558909418122338,0.20757185794903915
10.32025565,-0.4178078230534898,0.05827272145631951,0.2906430365614784
10.32525565,-0.4512948832723768,0.0851559308145061,0.3744725995175709
10.33025565,-0.48273704321156924,0.11134032708688499,0.4577924154700571
10.33525568,-0.5113666747842521,0.1369974102979642,0.5393641544877301
10.34025568,-0.5364566984720203,0.1623299024418786,0.617999333379409
10.34525569,-0.557338312790746,0.18756208307688227,0.6925775281967224
10.35025565,-0.5734176569497125,0.2129292242563678,0.7620625362796719
10.35525562,-0.5841909701267073,0.23866642801762605,0.8255163231664314
10.36025558,-0.5892578324584133,0.26499719497985535,0.8821106401726073
10.36525558,-0.5883321069756681,0.29212207369587145,0.9311362491800658
10.37025558,-0.5812502467205953,0.3202077553128538,0.972009745127656
10.37525562,-0.567976685089051,0.34937698524544897,1.0042780245304164
10.38025565,-0.5486060903499971,0.37969966134061894,1.0276205070516549
