"Time (s)","Acceleration x (m/s^2)","Acceleration y (m/s^2)","Acceleration z (m/s^2)"
1.115312300E-2,-1.388636976E-1,7.688080788E0,3.773261786E0
1.615312300E-2,4.788403511E-1,7.410353661E0,4.484339714E0
2.115312300E-2,8.259995580E-1,7.135020256E0,5.190928459E0
2.615312300E-2,1.089361787E0,6.943484306E0,6.206069946E0
3.115312300E-2,1.019929886E0,6.919542313E0,6.941090107E0
3.615312300E-2,6.751648784E-1,6.888417721E0,8.095095634E0
4.115332300E-2,1.867477298E-1,6.818985939E0,9.311349869E0
4.615332300E-2,-3.663128614E-1,6.457461357E0,1.061140156E1
5.115332300E-2,-7.134721279E-1,6.014533997E0,1.145894814E1
5.614994800E-2,-1.113303781E0,5.662586212E0,1.218918037E1
6.114994800E-2,-1.455674648E0,5.473444462E0,1.268717384E1
6.614994800E-2,-1.747767210E0,5.456685066E0,1.288349819E1
7.114994800E-2,-2.061407566E0,5.492598057E0,1.273266411E1
7.614894800E-2,-2.360682964E0,5.516540051E0,1.231367874E1
8.114894800E-2,-2.614468336E0,5.559635639E0,1.171991634E1
8.614894800E-2,-2.813186884E0,5.734412193E0,1.108305931E1
9.114714800E-2,-2.861071110E0,5.973832607E0,1.043422985E1
9.614714800E-2,-2.640804529E0,6.347328186E0,9.672874451E0
1.011471480E-1,-2.272097349E0,6.670545101E0,9.031228065E0
1.061471480E-1,-1.865083098E0,6.821380138E0,8.344092369E0
1.111471480E-1,-1.450886250E0,6.821380138E0,7.668927193E0
1.161471480E-1,-1.034295082E0,6.857293129E0,7.072771072E0
1.211471480E-1,-7.254431248E-1,6.981791496E0,6.591536522E0
1.261471480E-1,-3.878606856E-1,7.206846237E0,6.186916351E0
1.311471480E-1,-2.059013397E-1,7.384017467E0,6.134243965E0
1.361471890E-1,-3.351882473E-2,7.467814445E0,6.151003361E0
1.411471890E-1,0.000000000E0,7.400776863E0,6.335357189E0
1.461471890E-1,-4.309562966E-2,7.206846237E0,6.560411930E0
1.511471890E-1,-1.053448766E-1,6.977003098E0,6.809409142E0
1.561471890E-1,-1.963245422E-1,6.854898930E0,7.034463882E0
1.611471890E-1,-2.968810201E-1,6.804620743E0,7.290643215E0
1.661471890E-1,-4.118026793E-1,6.859687328E0,7.513304234E0
1.711471890E-1,-5.099649429E-1,6.902782917E0,7.678503990E0
1.761471890E-1,-5.985504389E-1,6.905177116E0,7.786243439E0
1.811471890E-1,-6.536170840E-1,6.864475727E0,7.870040417E0
1.861471890E-1,-7.134721279E-1,6.680121899E0,7.886799812E0
1.911471550E-1,-6.296750307E-1,6.483797550E0,7.822156429E0
1.961471550E-1,-4.908113480E-1,6.390423775E0,7.733570576E0
2.011471550E-1,-4.285621047E-1,6.440701962E0,7.676109791E0
2.061480550E-1,-3.615244627E-1,6.474220753E0,7.611466408E0
2.111480880E-1,-2.849099934E-1,6.392817974E0,7.527669430E0
2.161480880E-1,-2.489969730E-1,6.297049522E0,7.427113056E0
2.211480880E-1,-2.394201756E-1,6.261136532E0,7.333739281E0
2.261485210E-1,-7.661445439E-2,6.301837921E0,7.278672218E0
2.311485210E-1,5.985504389E-2,6.423942566E0,7.271489620E0
2.361485210E-1,2.154781520E-1,6.579565525E0,7.273883820E0
2.411494210E-1,2.920926213E-1,6.749553680E0,7.305008888E0
2.461494210E-1,3.591302633E-1,6.797437668E0,7.388805866E0
2.511494210E-1,4.118026793E-1,6.756736279E0,7.551611423E0
2.561494210E-1,4.501099288E-1,6.670545101E0,7.731176376E0
2.611494210E-1,4.548983276E-1,6.598719120E0,7.939472198E0
2.661494210E-1,4.716577232E-1,6.653785706E0,8.123826027E0
2.711494210E-1,4.884171486E-1,6.751947880E0,8.262689590E0
2.761494210E-1,5.171475410E-1,6.821380138E0,8.324938774E0
2.811494210E-1,5.003881454E-1,6.785466671E0,8.360851288E0
2.861493870E-1,4.979939461E-1,6.732794285E0,8.387187958E0
2.911493870E-1,5.793967843E-1,6.754342079E0,8.351274490E0
2.961493870E-1,7.445967197E-1,6.845322132E0,8.224382401E0
3.011493870E-1,9.576807022E-1,6.914753914E0,7.929895401E0
3.061493870E-1,1.019929886E0,6.773495674E0,7.728782177E0
3.111493870E-1,1.065419793E0,6.356904984E0,7.546823025E0
3.161493870E-1,1.086967587E0,5.878064632E0,7.570765018E0
3.211493870E-1,9.792284966E-1,5.483021259E0,7.810185432E0
3.261493870E-1,7.661445141E-1,5.267542839E0,8.411129951E0
3.311493870E-1,6.129156351E-1,5.279513836E0,8.791808128E0
3.361493870E-1,3.663128614E-1,5.315426826E0,9.172486305E0
3.411493870E-1,1.987187415E-1,5.425560474E0,9.313743591E0
3.461493530E-1,8.858546615E-2,5.581183434E0,9.340080261E0
3.511493530E-1,3.112462163E-2,5.763142586E0,9.301773071E0
3.561493530E-1,5.746084079E-2,5.937919617E0,9.241917610E0
3.611493190E-1,1.173158810E-1,6.129455566E0,9.148544312E0
3.661493190E-1,2.394201756E-1,6.227617741E0,8.945036888E0
3.711493190E-1,3.040636182E-1,6.261136532E0,8.798990250E0
3.761492850E-1,3.782838583E-1,6.230011940E0,8.629002571E0
3.811492850E-1,4.453215301E-1,6.218040943E0,8.435071945E0
3.861492850E-1,4.620809257E-1,6.196493149E0,8.267477989E0
3.911492850E-1,4.285621047E-1,6.122272968E0,8.135796547E0
3.961492850E-1,3.471592367E-1,5.906795025E0,7.949048996E0
4.011492850E-1,3.136404157E-1,5.653009415E0,7.678503990E0
4.061492850E-1,2.274491638E-1,5.418377876E0,7.395988464E0
4.111492850E-1,1.268926859E-1,5.332186222E0,7.161356449E0
4.161493180E-1,4.788403399E-3,5.377676487E0,6.988974094E0
4.211493180E-1,-1.101332754E-1,5.526116848E0,6.893206120E0
4.261493180E-1,-1.675941199E-1,5.758354187E0,6.795043468E0
4.311493180E-1,-1.556231081E-1,5.887641430E0,6.739976883E0
4.361493180E-1,-8.140286058E-2,5.878064632E0,6.665756702E0
4.411493180E-1,1.029506698E-1,5.765536785E0,6.641814709E0
4.461498180E-1,3.950432837E-1,5.638644218E0,6.651391506E0
4.511498180E-1,6.655880809E-1,5.511751652E0,6.653785706E0
4.561498180E-1,8.858546019E-1,5.437531471E0,6.646603107E0
4.611498510E-1,1.084573388E0,5.418377876E0,6.644208908E0
4.661498510E-1,1.271321058E0,5.471050262E0,6.651391506E0
4.711498510E-1,1.412579060E0,5.609913826E0,6.689698696E0
4.761498840E-1,1.675941229E0,5.827786446E0,6.713640690E0
4.811498840E-1,2.006340981E0,6.083965778E0,6.804620743E0
4.861498840E-1,2.358288765E0,6.165368557E0,6.943484306E0
4.911498840E-1,2.731784105E0,6.122272968E0,7.077559471E0
4.961499170E-1,3.157952070E0,5.985803604E0,7.190086842E0
5.011499170E-1,3.541024208E0,5.712864399E0,7.350498676E0
5.061499170E-1,3.859453201E0,5.375282288E0,7.644985199E0
5.111499170E-1,4.074931145E0,4.980238914E0,7.951443195E0
5.161499170E-1,4.168305397E0,4.517858505E0,8.332120895E0
5.211499170E-1,4.149151325E0,4.098873138E0,8.798990250E0
5.261499170E-1,4.204218388E0,3.768473387E0,9.356839180E0
5.311499170E-1,4.290409565E0,3.612850428E0,9.694421768E0
5.361499170E-1,4.386177540E0,3.490746021E0,9.974543571E0
5.411490170E-1,4.525041103E0,3.368641853E0,1.020199299E1
5.461490170E-1,4.584896088E0,3.169923067E0,1.052042198E1
5.511490170E-1,4.580107689E0,2.990357876E0,1.072632313E1
5.561490170E-1,4.563348293E0,2.703053713E0,1.098010826E1
5.611490170E-1,4.532223701E0,2.420537949E0,1.121234608E1
5.661489830E-1,4.402936935E0,2.078166962E0,1.123868179E1
5.711489830E-1,4.201824188E0,1.582567334E0,1.104714584E1
5.761489830E-1,4.019864559E0,9.768342972E-1,1.068083286E1
5.811489830E-1,4.072536945E0,7.398083210E-1,1.017326260E1
5.861489830E-1,4.259284973E0,6.224924326E-1,9.344868660E0
5.911489830E-1,4.328716755E0,4.955997467E-1,8.375216484E0
5.961484830E-1,4.192247391E0,3.782838583E-1,7.376834869E0
6.011484830E-1,3.976768970E0,6.081272364E-1,6.553229332E0
6.061484830E-1,3.981557369E0,1.716642618E0,5.732017994E0
6.111484490E-1,4.235342979E0,2.300827742E0,5.322609425E0
6.161484490E-1,4.721365929E0,2.681505919E0,5.143044472E0
6.211484490E-1,5.217264652E0,2.398990154E0,5.473444462E0
6.261484150E-1,5.437531471E0,1.915361404E0,5.497386456E0
6.311484150E-1,5.408801079E0,1.623268723E0,5.325003624E0
6.361484150E-1,5.114314079E0,1.426944256E0,5.214870453E0
6.411484150E-1,4.551377296E0,1.089361787E0,5.272331238E0
6.461484150E-1,3.878606796E0,6.607996821E-1,5.494992256E0
6.511484150E-1,3.217807055E0,1.747767180E-1,5.624279022E0
6.561484150E-1,2.887407303E0,-7.182605099E-3,5.748777390E0
6.611484150E-1,3.342305660E0,5.913678408E-1,6.548440933E0
6.661475150E-1,3.667917013E0,1.738190413E0,8.748712540E0
6.711466150E-1,3.512293816E0,1.956062794E0,8.834903717E0
6.761461150E-1,5.176563263E0,9.504981041E-1,1.009185982E1
6.811456480E-1,6.256348133E0,3.088520169E-1,9.555558205E0
6.861451810E-1,6.414365768E0,1.628057212E-1,9.033622742E0
6.911456140E-1,5.641038418E0,5.626373887E-1,8.200440407E0
6.961451140E-1,4.709394932E0,1.230619669E0,7.297826290E0
7.011446140E-1,4.232948780E0,1.654393315E0,6.395212173E0
7.061441140E-1,3.988739967E0,1.757344007E0,5.691316605E0
7.111436470E-1,3.873818398E0,1.673547029E0,5.001786709E0
7.161431800E-1,3.804386616E0,1.577778935E0,4.438849926E0
7.211427130E-1,3.689464808E0,1.383848548E0,4.019864559E0
7.261427130E-1,3.543418407E0,1.264138460E0,4.101267338E0
7.311427130E-1,3.402160645E0,1.230619669E0,4.407725334E0
7.361427130E-1,3.277662039E0,1.247379065E0,4.977844715E0
7.411427130E-1,3.371036053E0,1.264138460E0,5.662586212E0
7.461427130E-1,3.682282209E0,1.295263171E0,6.337751389E0
7.511427130E-1,3.916913986E0,1.237802267E0,6.919542313E0
7.561427130E-1,3.957615376E0,1.244984865E0,7.403171062E0
7.611427460E-1,3.933673382E0,1.266532660E0,7.563582420E0
7.661427790E-1,3.794809580E0,1.288080573E0,7.477391243E0
7.711428120E-1,3.713406801E0,1.273715258E0,7.446266651E0
7.761428120E-1,3.646369219E0,1.276109457E0,7.544428825E0
7.811428120E-1,3.694253206E0,1.345541358E0,7.680898190E0
7.861428120E-1,3.675099611E0,1.386242747E0,7.968202591E0
7.911428450E-1,3.648763418E0,1.357512355E0,8.260294914E0
7.961428780E-1,3.624821424E0,1.223437071E0,8.499714851E0
8.011429110E-1,3.548206806E0,1.082179189E0,8.710405350E0
8.061430110E-1,3.363853455E0,1.027112484E0,8.937853813E0
8.111430110E-1,3.227383852E0,9.361328483E-1,9.182063103E0
8.161439110E-1,2.877830505E0,7.062895298E-1,9.428665161E0
8.211448110E-1,2.715024710E0,5.458779931E-1,9.548376083E0
8.261453110E-1,2.640804529E0,4.501099288E-1,9.553164482E0
8.311457770E-1,2.585737944E0,3.998316824E-1,9.510068893E0
8.361462770E-1,2.509123325E0,3.591302633E-1,9.368810654E0
8.411467770E-1,2.384624958E0,3.136404157E-1,9.191639900E0
8.461473100E-1,2.315192938E0,2.633621991E-1,9.031228065E0
8.511478100E-1,2.444479942E0,2.968810201E-1,8.952219009E0
8.561483100E-1,2.822763920E0,4.477157295E-1,8.794201851E0
8.611487760E-1,3.521870613E0,6.320692301E-1,8.581118584E0
8.661492420E-1,4.125209332E0,8.690952063E-1,8.564358711E0
8.711497080E-1,4.568136692E0,9.792284966E-1,8.676886559E0
8.761497080E-1,4.800374508E0,1.017535686E0,8.933065414E0
8.811497080E-1,4.925172329E0,9.241618514E-1,9.246706009E0
8.861497410E-1,4.999392509E0,7.924807668E-1,9.581894875E0
8.911497740E-1,5.032911301E0,6.200982332E-1,9.972148895E0
8.961498070E-1,5.008969307E0,4.692635238E-1,1.041028786E1
9.011498070E-1,4.917989731E0,3.256114423E-1,1.085560989E1
9.061498070E-1,4.754884720E0,1.532289088E-1,1.122671127E1
9.111497400E-1,4.553771496E0,6.224924326E-2,1.137275696E1
9.161497400E-1,4.311957359E0,-2.394201700E-3,1.138951683E1
9.211497400E-1,4.043806553E0,-1.316810995E-1,1.131529617E1
9.261497730E-1,3.600879431E0,-3.160346150E-1,1.134163284E1
9.311497730E-1,3.241749048E0,-4.141969085E-1,1.135360336E1
9.361497730E-1,2.743755102E0,-5.530605912E-1,1.130811405E1
9.411497390E-1,2.322375536E0,-7.134721279E-1,1.120276928E1
9.461497050E-1,2.023100376E0,-8.092401624E-1,1.103996372E1
9.511496710E-1,1.934514999E0,-9.145850539E-1,1.079336071E1
9.561495710E-1,2.118868589E0,-9.265560508E-1,1.049647999E1
9.611496040E-1,2.489969730E0,-8.451532125E-1,1.017086792E1
9.661489700E-1,3.002328873E0,-6.823474765E-1,1.005355263E1
9.711483360E-1,3.610456228E0,-5.195417404E-1,1.011580181E1
9.761483360E-1,4.165910721E0,-3.040636182E-1,1.029297256E1
9.811483360E-1,4.395754337E0,7.661445439E-2,1.045338345E1
9.861476360E-1,4.537012100E0,6.512228847E-1,1.048450851E1
9.911470360E-1,5.820603371E0,-2.633621916E-2,1.027860737E1
9.961463690E-1,7.087136269E0,-7.924807668E-1,1.023072338E1
1.001145735E0,7.712022781E0,-9.074024558E-1,1.031691456E1
1.006145101E0,8.231564522E0,-6.320692301E-1,1.072153473E1
1.011144467E0,8.289025307E0,-3.543418646E-1,1.087955189E1
1.016144467E0,8.607454300E0,-5.841852427E-1,1.104714584E1
1.021144467E0,8.849268913E0,-9.313444495E-1,1.103517532E1
1.026143767E0,9.000102997E0,-1.189918280E0,1.095137787E1
1.031142867E0,9.004891396E0,-1.137245774E0,1.084124470E1
1.036142833E0,9.186851501E0,-9.624691010E-1,1.065928555E1
1.041142166E0,9.452607155E0,-7.278373241E-1,1.045577812E1
1.046142166E0,9.876380920E0,-7.206547260E-1,1.042704773E1
1.051142199E0,1.041507626E1,-9.409212470E-1,1.040549946E1
1.056142199E0,1.098489666E1,-9.840168953E-1,1.034085655E1
1.061142232E0,1.144458294E1,-9.193734527E-1,1.028578949E1
1.066142198E0,1.173906994E1,-7.589619160E-1,1.013495541E1
1.071142198E0,1.225382328E1,-6.464344859E-1,9.871592522E0
1.076142198E0,1.273026943E1,-4.429273009E-1,9.411906242E0
1.081142231E0,1.318037987E1,-1.963245422E-1,8.796596527E0
1.086142231E0,1.361373043E1,5.027823523E-2,8.023268700E0
1.091142231E0,1.370231533E1,1.268926859E-1,7.530063629E0
1.096142231E0,1.361612415E1,2.130839527E-1,6.895600319E0
1.101142231E0,1.339106941E1,2.394201756E-1,6.124667168E0
1.106142231E0,1.323784065E1,1.077390760E-1,5.617096424E0
1.111142297E0,1.297208405E1,-1.005564705E-1,5.234024048E0
1.116142930E0,1.262013626E1,-3.471592367E-1,4.985027313E0
1.125331230E0,1.230410194E1,-6.416460276E-1,4.838681698E0
1.130331263E0,1.198088455E1,-9.720458984E-1,4.687847137E0
1.135331296E0,1.173188782E1,-1.058237195E0,4.608838081E0
1.140331962E0,1.141824722E1,-1.137245774E0,4.477157116E0
1.145332528E0,1.123868179E1,-1.321599364E0,4.280832767E0
1.150332761E0,1.100165653E1,-1.625662923E0,3.979163170E0
1.155332527E0,1.086997509E1,-1.781286120E0,3.785232782E0
1.160332293E0,1.067604446E1,-2.013523579E0,3.457227230E0
1.165332626E0,1.070716953E1,-2.166752577E0,3.165134668E0
1.170332626E0,1.078378391E1,-2.298433542E0,2.889801502E0
1.175332626E0,1.081011963E1,-2.458845139E0,2.614468336E0
1.180332426E0,1.084124470E1,-2.688688517E0,2.372653961E0
1.185332426E0,1.095377159E1,-2.889801502E0,2.161964178E0
1.190332426E0,1.110939503E1,-2.990357876E0,1.927332401E0
1.195333059E0,1.127698898E1,-3.021482468E0,1.831564307E0
1.200332659E0,1.145894814E1,-2.865859509E0,1.731007814E0
1.205331759E0,1.151640987E1,-2.736572504E0,1.505952835E0
1.210331459E0,1.152838039E1,-2.659958124E0,1.230619669E0
1.215331459E0,1.139909363E1,-2.705447912E0,9.864110947E-1
1.220330825E0,1.108066463E1,-2.942473888E0,7.565677166E-1
1.225329891E0,1.066167927E1,-3.315969467E0,5.770025849E-1
1.230329457E0,1.003439903E1,-3.909731388E0,4.836287498E-1
1.235329423E0,9.708786964E0,-4.343081951E0,5.434837937E-1
1.240329423E0,9.155726433E0,-4.764461517E0,6.823474765E-1
1.245329423E0,8.607454300E0,-4.982633114E0,8.714894056E-1
1.250329456E0,8.171710014E0,-5.028122902E0,1.091755986E0
1.255329489E0,8.025663376E0,-5.016151905E0,1.233013868E0
1.260329522E0,8.023268700E0,-4.992209911E0,1.508347034E0
1.265329422E0,8.099884033E0,-4.927566528E0,2.023100376E0
1.270328522E0,8.391976357E0,-4.683058739E0,2.655169725E0
1.275328488E0,8.674491882E0,-4.539406300E0,2.901772499E0
1.280328488E0,9.117419243E0,-4.355052948E0,3.098097086E0
1.285328488E0,9.766247749E0,-4.175487995E0,3.064578056E0
1.290328521E0,1.005594635E1,-4.041412354E0,2.904166698E0
1.295328521E0,1.039113426E1,-3.852270603E0,2.355894566E0
1.300328921E0,1.060182476E1,-3.792415380E0,1.695094824E0
1.305329787E0,1.078617764E1,-3.823540211E0,1.055842996E0
1.310330653E0,1.094419479E1,-3.792415380E0,5.674257874E-1
1.315330953E0,1.113094330E1,-3.768473387E0,2.968810201E-1
1.320330953E0,1.126262379E1,-3.739742994E0,1.771709323E-1
1.325330986E0,1.131290245E1,-3.825934410E0,3.184288144E-1
1.330331919E0,1.116685581E1,-3.993528366E0,5.554547906E-1
1.335332852E0,1.085082150E1,-4.247313976E0,7.637503147E-1
1.340332852E0,1.055154610E1,-4.393360138E0,9.169792533E-1
1.345332852E0,1.014213753E1,-4.618414879E0,1.285686255E0
1.350333218E0,9.847650528E0,-4.781220913E0,1.608903527E0
1.355334118E0,9.536404610E0,-4.888959885E0,1.845929503E0
1.360334451E0,9.253889084E0,-4.996998310E0,2.049436569E0
1.365334484E0,8.947430611E0,-5.073612690E0,2.238578558E0
1.370335150E0,8.755894661E0,-5.104737282E0,2.288856745E0
1.375336050E0,8.576330185E0,-5.080795288E0,2.339135170E0
1.380336450E0,8.547599792E0,-5.047276497E0,2.315192938E0
1.385336450E0,8.535628319E0,-4.937143326E0,2.097320795E0
1.390336883E0,8.499714851E0,-4.826710701E0,1.786074519E0
1.395336883E0,8.511686325E0,-4.738125324E0,1.371877551E0
1.400336849E0,8.478167534E0,-4.630385876E0,8.954314590E-1
1.405336849E0,8.583512306E0,-4.472368717E0,5.171475410E-1
1.410336849E0,8.624214172E0,-4.292803764E0,1.771709323E-1
1.415336882E0,8.358457565E0,-4.115632534E0,-7.230489254E-1
1.420337115E0,8.104672432E0,-4.103661537E0,-1.532289028E0
1.425337115E0,7.769483566E0,-4.199429989E0,-1.649604917E0
1.430337081E0,7.587524414E0,-4.271255970E0,-1.778891921E0
1.435337081E0,7.185298443E0,-4.486733913E0,-2.482787132E0
1.440336414E0,6.268319130E0,-4.951508522E0,-4.632780075E0
1.445335780E0,5.466261864E0,-5.155015469E0,-4.920383930E0
1.450335613E0,5.353734493E0,-4.802768707E0,-3.967192173E0
1.455335613E0,5.724835396E0,-4.584896088E0,-2.755726099E0
1.460335613E0,5.839757442E0,-4.774038315E0,-1.216254473E0
1.465335613E0,6.701669693E0,-4.589684486E0,-1.278503656E0
1.470335613E0,6.665756702E0,-4.949114323E0,-2.346317619E-1
1.475335579E0,7.067982674E0,-5.032911301E0,5.315127969E-1
1.480335579E0,7.051223278E0,-4.994604111E0,1.031900883E0
1.485335579E0,6.886023521E0,-5.291484833E0,1.498770237E0
1.490335612E0,7.178115845E0,-4.874594688E0,6.129156351E-1
1.495334978E0,7.434295654E0,-4.865017891E0,5.937620401E-1
1.500335144E0,7.817368031E0,-4.517858505E0,1.628057212E-1
1.505335110E0,7.922712803E0,-4.671087742E0,-5.746084079E-2
1.510335076E0,7.563582420E0,-4.908412933E0,-2.298433632E-1
1.515335076E0,7.082347870E0,-5.396830082E0,1.436521020E-2
1.520334876E0,6.833351135E0,-5.753565788E0,4.070142806E-1
1.525334909E0,6.608295918E0,-6.251559734E0,1.233013868E0
1.530334909E0,6.553229332E0,-6.421548367E0,1.668758631E0
1.535334909E0,6.400000572E0,-6.534075737E0,1.651999116E0
1.540334142E0,6.476614952E0,-6.701669693E0,1.798045516E0
1.545334142E0,6.593930721E0,-6.814197540E0,1.572990537E0
1.550334142E0,7.044040680E0,-6.347328186E0,8.020575643E-1
1.555334108E0,7.142202854E0,-6.423942566E0,5.243301988E-1
1.560334108E0,7.364863873E0,-5.995380402E0,-2.825157940E-1
1.565334108E0,7.558794022E0,-5.641038418E0,-8.044517636E-1
1.570334808E0,7.441478252E0,-5.554847240E0,-4.118026793E-1
1.575334808E0,7.750329971E0,-5.418377876E0,-5.578489900E-1
1.580334808E0,7.764695168E0,-5.667374611E0,-9.864110947E-1
1.585334774E0,7.039252281E0,-5.667374611E0,-1.551442742E0
1.590335440E0,6.670545101E0,-5.439925671E0,-1.939303398E0
1.595336106E0,6.586748123E0,-5.176563263E0,-2.442085743E0
1.600336306E0,6.629843712E0,-5.684134007E0,-2.135627985E0
1.605336306E0,6.337751389E0,-5.808632374E0,-1.802833915E0
1.610336306E0,5.978621006E0,-5.887641430E0,-1.608903527E0
1.615336306E0,6.196493149E0,-6.431125164E0,-4.070142806E-1
1.620336306E0,7.680898190E0,-6.718429089E0,1.673547029E0
1.625336306E0,8.265083313E0,-6.469432354E0,2.865859509E0
1.630336272E0,7.123049259E0,-5.952284813E0,2.580949545E0
1.635336238E0,7.403171062E0,-6.565200329E0,1.647210717E0
1.640336238E0,6.742371082E0,-6.464643955E0,7.805097699E-1
1.645336904E0,6.052841187E0,-6.792649269E0,7.541735172E-1
1.650336770E0,6.423942566E0,-6.601113319E0,5.937620401E-1
1.655336770E0,5.648221016E0,-6.198887348E0,1.570596337E0
1.660336770E0,5.629067421E0,-6.268319130E0,2.415749550E0
1.665336736E0,6.452672958E0,-6.476614952E0,2.296039343E0
1.670336936E0,6.297049522E0,-6.651391506E0,2.418143749E0
1.675336936E0,4.309563160E0,-6.579565525E0,2.904166698E0
1.680336969E0,6.194098949E0,-6.400000572E0,3.107673883E0
1.685336969E0,6.797437668E0,-6.050446987E0,4.613626480E0
1.690337302E0,7.278672218E0,-5.868487835E0,4.752490520E0
1.695337302E0,8.243535995E0,-6.249165535E0,3.421314240E0
1.700337302E0,5.600337029E0,-6.682516098E0,2.796427488E0
1.705337302E0,6.768707275E0,-7.747935772E0,-2.130839527E-1
1.710337268E0,5.748777390E0,-8.128614426E0,-7.158663273E-1
1.715337268E0,8.523657799E0,-8.025663376E0,-3.859453201E0
1.720337268E0,9.589076996E0,-7.273883820E0,-4.046200752E0
1.725337301E0,9.167697906E0,-6.067206383E0,-1.067813993E0
1.730337301E0,1.220833397E1,-5.617096424E0,-6.823474765E-1
