Time (s),Acceleration x (m/s^2),Acceleration y (m/s^2),Acceleration z (m/s^2)
6.000558413,-0.31277232534385746,-0.7386785403071011,-0.8318790713412956
6.005558379,0.5718747394761473,-0.5642623122729243,-0.981733589428627
6.010558345,1.4528939631127507,-0.36323226062021746,-1.099599327099175
6.015558345,2.323887519430756,-0.1294080110258845,-1.179075889578106
6.020558345,3.1790801951843526,0.14216724275593717,-1.2146347877372494
6.025558378,4.0132061196350195,0.45488400178619837,-1.2019132399040762
6.030558378,4.821361767909933,0.8102858716438431,-1.1379882581228022
6.035558378,5.598836382607311,1.207866208378258,-1.021616424343823
6.040557678,6.340932087127628,1.6449541516685722,-0.8534253656702429
6.045556778,7.042786574701788,2.1166985532896976,-0.636044117264572
6.050555878,7.699211336617714,2.616154055419182,-0.3741612347916481
6.055555911,8.304557936890605,3.1344688568013517,-0.07450165750093585
6.060556111,8.852623866624857,3.6611687372087145,0.25428406972811013
6.065556111,9.33660806466461,4.184526963210837,0.6018215466517458
6.070555444,9.749124326695735,4.692005075014769,0.956305099699078
6.075555444,10.08227858705629,5.170745555235614,1.3048772233976975
6.080555444,10.327813473567478,5.608094272399949,1.6340867867577926
6.08555541,10.477320624115634,5.992128588282602,1.9304136211420357
6.09055541,10.52251804240819,6.31216626059659,2.1808428309461503
6.09555501,10.455586323135876,6.559230811300972,2.373468103420051
6.100555043,10.269554014611815,6.7264508197984885,2.498099622951159
6.105555043,9.958718881148709,6.809373517710491,2.5468491154752977
6.110555043,9.519088561722866,6.806176940875433,2.5146623017935372
6.115555009,8.948821257689307,6.71776954350352,2.399767890681933
6.120554575,8.248644764150548,6.547771388830658,2.2040124487304347
6.125553641,7.4222305390490355,6.302376568641553,1.9330522827322107
6.130552974,6.476498752222448,5.990102119438768,1.5963770839323344
6.135552974,5.421830553345369,5.6214341360536,1.2071456713226787
6.14055234,4.272165322348661,5.208386781266448,0.7818217657058018
6.145552373,3.044963601414559,4.763994216831575,0.3396072128508105
6.150552406,1.7610209356569908,4.3017589163770396,-0.09831877246482616
6.155552872,0.4441240819699996,3.835082141185686,-0.5097332860616643
6.160552872,-0.87945113907722,3.3767033292662587,-0.8724420409677147
6.165552838,-2.181592184974809,2.938174551793401,-1.165442965305555
6.170552838,-3.4331350564279743,2.5293939297445527,-1.3701222237319723
6.175552838,-4.604756818980711,2.158218084269322,-1.4714151500300394
6.180552871,-5.66794275284166,1.8301686513905162,-1.4588599789492063
6.185552871,-6.595990406487793,1.548242133409585,-1.327472483629969
6.190553537,-7.365009780049989,1.312826471312339,-1.0783750166226354
6.195554403,-7.954877833525831,1.1217222657011188,-0.7191239928979659
6.200555269,-8.350106256812328,0.9702620146205058,-0.263695180100533
6.205555235,-8.54058354147887,0.8515174085449528,0.26789443216936865
6.210555035,-8.522155473499614,0.7565827963033758,0.8503270308803375
6.215555068,-8.297012079817787,0.6749223906218765,1.4540616403350632
6.220555768,-7.873853959956814,0.5947693969015951,2.046700482705981
6.225555801,-7.26781714807478,0.5035666194756346,2.594574036436104
6.230555134,-6.500143543245456,0.38843968678146185,3.064457190224625
6.235555134,-5.597593770621895,0.2366952415649364,3.425316659277149
6.2405551,-4.591611151678901,0.03633670156335842,3.6499842558162126
6.245555466,-3.517259146276865,-0.2234109191592263,3.716652759069775
6.250555466,-2.4119697885352966,-0.5515783418060818,3.6101018875846522
6.255555499,-1.3141560841739015,-0.9549468900272811,3.3225814867926413
6.260555532,-0.26175463270277294,-1.4375812587703038,2.8543059957909778
6.265555532,0.7092270513562111,-2.000425132680316,2.2135444658442034
6.270555932,1.5660826369422403,-2.640987380524591,1.4163183596010869
6.275556832,2.280627712701733,-3.353146532757152,0.4857409666661091
6.280557498,2.830208525080307,-4.127098136777415,-0.5489532792393848
6.285557498,3.198451788017612,-4.9494636309766555,-1.6536323503848656
6.290558131,3.375724696254842,-5.803571101188266,-2.790680387787089
6.295558131,3.359291600136114,-6.669908317859273,-3.9205359764947576
6.300558131,3.153171319155889,-7.526737531252782,-5.0032881389767825
6.305557697,2.767715780437458,-8.350850443067795,-6.00026399328055
6.310557697,2.2189456543786696,-9.118431453607556,-6.87554460943548
6.315557697,1.5276910515157451,-9.805988614028257,-7.597350094942469
6.320557663,0.7185942414471181,-10.391305580838212,-8.139241399982428
6.325557663,-0.18096412373964835,-10.854365010487923,-8.48109471492232
6.330557663,-1.1419542391383721,-11.17819464147476,-8.609814404929603
6.335557696,-2.1347461194094994,-11.349591702472546,-8.519761710414418
6.340557696,-3.130071981382409,-11.359688699539282,-8.212888289014078
6.345557696,-4.099867758768622,-11.204333215646203,-7.698575430612079
6.350557696,-5.017972678399155,-10.884265152052956,-6.993190899893045
6.355557696,-5.8606787348961005,-10.405085956237428,-6.119385452075041
6.360557696,-6.607133245794078,-9.777025062667633,-5.105159876642263
6.365557662,-7.239606513959626,-9.014518476316429,-3.982740865693019
6.370557628,-7.743642463508765,-8.135622812508457,-2.7873101336420447
6.375557628,-8.108112878665452,-7.161294942932736,-1.5556361421790086
6.380558328,-8.325195845849908,-6.114572476340958,-0.3246615622160626
6.385558361,-8.390296728429623,-5.0196934113895475,0.8698978417205164
6.390558361,-8.301926219474824,-3.9011942935879884,1.9948861092957968
6.395558361,-8.06154550976694,-2.783025106776543,3.020915631540435
6.400558327,-7.673384134385154,-1.687716172640337,3.923398017052839
6.405558327,-7.144232328677072,-0.6356279710333392,4.683349263568805
6.410558327,-6.4832073493180875,0.35569041923338174,5.287929545922409
6.41555836,-5.70149255267681,1.272014154695957,5.730689978432548
6.42055836,-4.812048958513493,2.102812342007306,6.011514954156203
6.42555836,-3.8293010168173693,2.8414659621522933,6.136268233294306
6.43055836,-2.7688007146615465,3.485331010435291,6.116171079567546
6.43555836,-1.6468766270201656,4.035649393220639,5.966957925805275
6.44055836,-0.4802768380858755,4.497315379539439,5.707866968043822
6.445558326,0.71418339576487,4.87851022276859,5.360529283159992
6.450558326,1.9199570906138337,5.190221763783901,4.947821202319157
6.455557659,3.121071510841111,5.445669232352756,4.492741685166052
6.460557025,4.30239258005819,5.659655953051569,4.017370206886914
6.465556358,5.449837000083188,5.847874175436446,3.5419519639749364
6.470556358,6.55052354478673,6.026186798348414,3.084146703250895
6.475556324,7.592857898748441,6.20991042308958,2.6584658225595987
6.480556324,8.566548899447964,6.4131230704441435,2.275910234421839
6.485556324,9.462558029484551,6.648018177974264,1.9438095165163363
6.490556357,10.27298841376414,6.924324323455143,1.6658518289268587
6.49555639,10.990924249274055,7.248807688909177,1.442284718319007
6.50055639,11.61023620150671,7.624871801375173,1.2702599558623684
6.50555549,12.125372287705446,8.052266754412233,1.1442914107373292
6.51055549,12.531156442836597,8.526918001999931,1.056793592186923
6.51555549,12.822617739286759,9.040882804734752,0.9986693227433264
6.52055549,12.994871838173344,9.582440231303229,0.9599172082152038
6.525555456,13.04307278820435,10.136317997765337,0.9302324328890177
6.530555456,12.96244810738592,10.68405617830167,0.8995774854774558
6.535555456,12.748423651920827,11.204503883162403,0.8587024866330999
6.540555489,12.396837621640701,11.674440431617835,0.7995977613223115
6.545555489,11.90423573458367,12.069307524208389,0.7158642073305984
6.550555489,11.26823267448634,12.36403371965804,0.6029899560693235
6.555555455,10.487918842252046,12.533927499122859,0.4585249493343002
6.560555421,9.564286585294349,12.555610718506209,0.28214856020151546
6.565555387,8.50064672273245,12.407960628313562,0.07562948514715237
6.570555387,7.303004582438294,12.073026124401856,-0.15731808245421952
6.57555542,5.980365114157878,11.536882647643996,-0.41127276411025254
6.580555453,4.544939007266772,10.79039028379234,-0.6794244955221426
6.585555486,3.01222602114405,9.829821214935436,-0.9539547010967007
6.590555486,1.4009577018914134,8.6573258272934,-1.2264567403060123
6.595555486,-0.2671109899947737,7.28121153458494,-1.4883738204386459
6.600555452,-1.9675632426981906,5.716014673823868,-1.731431611758041
6.605556118,-3.673828296178501,3.982353465049621,-1.9480441392181171
6.610556784,-5.357819839366351,2.1065586535794,-2.131673964360896
6.615557484,-6.990680629575735,0.12008763299915373,-2.277130991901058
6.620557517,-8.543601855885571,-1.9412629043442406,-2.3807982045807266
6.625557517,-9.988680402460306,-4.0383218969477825,-2.4407770001467655
6.630557483,-11.299774141069063,-6.129654504503037,-2.4569493064933003
6.635557449,-12.453314995252068,-8.172779590441019,-2.4309579842709597
6.640557415,-13.429041828893714,-10.125449981304145,-2.3661108628778456
6.645557381,-14.210619976359,-11.946947812764904,-2.2672167829168095
6.650557381,-14.786120870072818,-13.599345626044267,-2.1403640161789537
6.655557647,-15.148342912611573,-15.048684193646533,-1.992652344431932
6.660557013,-15.294962669624404,-16.26602030784476,-1.8318900241257174
6.665557046,-15.228513091064055,-17.228301975167593,-1.6662661421113245
6.670557046,-14.956192654357539,-17.91903470738371,-1.5040079160248787
6.675557046,-14.489516178236435,-18.328710948600943,-1.3530317955441629
6.680557012,-13.843824681876796,-18.454985012599607,-1.2205971499150612
6.685557012,-13.037677921152264,-18.302587793737754,-1.1129720294742362
6.690557012,-12.092158671709745,-17.882988205547235,-1.0351218614213293
6.695557045,-11.030121780657089,-17.21382083328665,-0.9904336258207885
6.700557045,-9.875422826209613,-16.318110661545028,-0.9804894397418861
6.705557045,-8.65216058090521,-15.223335074410963,-1.004903820138395
6.710557045,-7.383964545316913,-13.960369971634067,-1.0612376880960295
6.715557045,-6.093354174796583,-12.562370432528246,-1.144999414335422
6.720557045,-4.801190727174743,-11.063636815666417,-1.2497393337731457
6.725557011,-3.5262364710866074,-9.498514703015884,-1.3672397405677004
6.730557011,-2.284829751257886,-7.900372101964888,-1.487797821963235
6.735557011,-1.0906784858565841,-6.300690370402645,-1.600594523541682
6.740557044,0.04523061350171408,-4.728297039652925,-1.6941381242684426
6.745557077,1.114614246656279,-3.2087596697290963,-1.7567675091531108
6.750557077,2.1117768062351625,-1.7639506249821157,-1.7771969041591527
6.755557043,3.033409969182579,-0.41178369145546584,-1.7450812491630396
6.760557009,3.8783225729053634,0.8338848022670875,-1.651579434281324
6.765557009,4.647116762579424,1.9632048719443032,-1.4898913184100366
6.770557009,5.341826788280669,2.9701520349127244,-1.2557438470818316
6.775557042,5.96553669196907,3.8522410619764753,-0.9478017986126471
6.780557042,6.5219925408809845,4.610160863171875,-0.5679798220582495
6.785557042,7.015223928414944,5.247357403851504,-0.12163456721852273
6.790557042,7.449188263068695,5.769590188101441,0.38238110051320495
6.795557042,7.827449972467861,6.184485040387945,0.9318155263171279
6.800557042,8.152905224789405,6.5011020197844775,1.5112756925721453
6.805557675,8.427561162292328,6.729532711316393,2.102646629898382
6.810558341,8.652376973861141,6.880536261356405,2.685667598577297
6.815558341,8.827172401735599,6.965218751850332,3.2386521111279247
6.820558374,8.950607463344648,6.994756202444487,3.7393310205792303
6.825558374,9.020235242881117,6.980157950872827,4.165790329554543
6.830558374,9.032627523607065,6.932064598104285,4.497468469130035
6.83555834,8.98357073629359,6.860573215094951,4.71617190493824
6.84055834,8.86832715328323,6.775082095889163,4.807063375728806
6.84555834,8.681953466180076,6.684147938222958,4.759574170592947
6.850558373,8.419665912135258,6.5953498109584965,4.568190918687555
6.855558373,8.07723809062625,6.515156450893672,4.233068701531254
6.860558373,7.651414737440276,6.448796102470833,3.7604261538590467
6.865558373,7.140322244388627,6.400131026411079,3.1626847372505074
6.870558373,6.5438549103357495,6.371541692650639,2.4583235441781026
6.875558373,5.864015073008574,6.363828263644937,1.6714326715690597
6.880558339,5.105185697224525,6.376138983975296,0.8309621489416086
6.885558305,4.274315944837598,6.40593623900754,-0.03032072853935361
6.890558305,3.381003836720947,6.449011071422834,-0.8771355825307875
6.895558305,2.437465139016658,6.499555669868154,-1.673206875362124
6.900558338,1.4583835010857793,6.550300735000187,-2.382930899182956
6.905558338,0.4606428937678865,6.59272084541599,-2.973112520000999
6.910558338,-0.5370510744547878,6.617306336385018,-3.4146814791678315
6.915558304,-1.5146496737494193,6.613895231118711,-3.6842922305613373
6.92055827,-2.4513243229837345,6.572053913859934,-3.7657115696200374
6.925558236,-3.326096655331993,6.481490955018081,-3.6509053099622153
6.930558236,-4.11851529574212,6.332485190894613,-3.340748983686053
6.935558269,-4.809357600623396,6.116307174317887,-2.845307230882332
6.940558302,-5.381333140235858,5.825612705130865,-2.1836507528017743
6.945558335,-5.819764392285416,5.454788410294747,-1.3832065191518883
6.950558335,-6.113219147395282,5.000232152535513,-0.47866431018342337
6.955558335,-6.254068741832226,4.460555107602601,0.48951123129354446
6.960558301,-6.238946582890186,3.836697268395009,1.4768906857073492
6.965558301,-6.0690825930529435,3.131953490916842,2.4371208464222596
6.970558301,-5.750491271359739,2.351912595935268,3.324091837612483
6.975558334,-5.293994272552602,1.5043171143327365,4.094117989900958
6.980558334,-4.715063064043122,0.5988556515494592,4.708018679863763
6.985558334,-4.033473659735366,-0.3530968405937173,5.132990070181948
6.9905583,-3.2727738281377605,-1.3387737813866807,5.344169433064971
6.995558266,-2.459573413281046,-2.344329644493089,5.325810392153367
7.000558232,-1.6226798404150597,-3.3551557413347677,5.072009916185325
7.005558232,-0.7921121690070931,-4.356188203596683,4.586955586550734
7.010558232,0.00196353877693446,-5.332202225742174,3.8846921817510762
7.015558265,0.7303287080547445,-6.268091459271322,2.9884358424473687
7.020558298,1.365785687003097,-7.149135127856724,1.9294879584163582
7.025558331,1.8841608971214365,-7.96125739001091,0.7458176361019987
7.030558331,2.2651932970942963,-8.691283661284931,-0.5196082424512045
7.035558331,2.4932710224930132,-9.327197292386707,-1.820663256328223
7.040558297,2.5579880179869,-9.858397557611047,-3.1099826338977326
7.04555763,2.454502370749969,-10.275956717221435,-4.340884036069033
7.05055673,2.183688166448066,-10.572870365997833,-5.469209355364343
7.055555863,1.7520823689597465,-10.74429179854006,-6.455016111148545
7.060554963,1.1716368780585273,-10.787738175554322,-7.264056164581394
7.065554963,0.4592930523474071,-10.703254300472382,-7.868990234099723
7.070554963,-0.3635986927488782,-10.49351913127954,-8.250298705240382
7.075554963,-1.2719881018500294,-10.163880903569975,-8.396862104819816
7.080554963,-2.237935081615221,-9.7223088981737,-8.306197894912996
7.085554529,-3.231491737114493,-9.179253288414955,-7.984353453231038
7.090554529,-4.221627795266656,-8.547408918415043,-7.445467817393255
7.095554529,-5.177171438172426,-7.841384040102264,-6.71102669241946
7.100554562,-6.0677386551427706,-7.07728066945192,-5.808846202159702
7.105553662,-6.864625590708925,-6.272198905445317,-4.771830794495259
7.110553662,-7.541639871376035,-5.4436827882423175,-3.6365593834585748
7.115553628,-8.075848448461636,-4.609129561789195,-2.441760877015231
7.120553594,-8.448221138144472,-3.7851871731105105,-1.2267452441540971
7.125553594,-8.64415094164141,-2.9871662722016428,-0.029858734377436864
7.130553694,-8.65383464013526,-2.2284928128601234,1.1129687043841883
7.135553727,-8.472500369044768,-1.5202256813461383,2.169519808603604
7.140553727,-8.10047316857469,-0.8706608368391576,3.1123740886380484
7.145553727,-7.543075066947459,-0.2850396044881436,3.9197354672617744
7.150553727,-6.8103629878092145,0.23462558252641696,4.575974809359588
7.155553727,-5.916715212529182,0.6895992302435792,5.071876196445414
7.160553727,-4.880284552693055,1.084340419584893,5.404592950430669
7.165553693,-3.7223430836129667,1.4262903820055948,5.577334140636721
7.170553293,-2.4665486774812284,1.7255349449910689,5.598813803703194
7.175552626,-1.1381672074294964,1.9943513990269464,5.4825035963492805
7.180552659,0.2367141363342392,2.246653914663384,5.245735493228496
7.185552659,1.6319475756628108,2.497355936419776,4.908704547174202
7.190552659,3.022027323207275,2.7616716888028576,4.493422592219956
7.195553292,4.382706234378474,3.0543817999700216,4.022672154044665
7.200554192,5.691504627044452,3.3890899770937413,3.5190060455776733
7.205555092,6.928096377079463,3.7774986637771613,3.0038326842395975
7.210556025,8.07456522119509,4.228731710143296,2.4966206615012387
7.215556025,9.115532411172508,4.74873130272569,2.0142490086108404
7.220556025,10.038164938106515,5.3397547339178875,1.5705221828164133
7.225556025,10.832080870722402,5.99999405882467,1.175861077924989
7.230556025,11.48917429886674,6.72333833571169,0.8371733307658242
7.235556425,12.003386408625335,7.499294028564743,0.5578979948289077
7.240556391,12.370451018466593,8.313074321183295,0.33821164081975835
7.245556357,12.587642414202547,9.145862620457208,0.17537560058112936
7.250556357,12.653550698106374,9.975249515064611,0.06419787632779278
7.25555729,12.567905441162784,10.775836051728849,-0.002421414278226512
7.260557323,12.331462633101186,11.519989579022784,-0.03289505359591064
7.265557323,11.945963258878779,12.178731799396449,-0.0363392186206519
7.270557323,11.414164795680485,12.722732300943361,-0.0219837137282528
7.275557289,10.73993998856521,13.123374991209156,0.0013662736880196366
7.280557189,9.928430842865025,13.35385986048219,0.025789296594603
7.285556989,8.986240238197558,13.390298729222053,0.0446059488937348
7.290556989,7.9216392489852785,13.212761423474257,0.05262206319687527
7.295557022,6.74476541915118,12.80622841795198,0.0462509486006824
7.300557055,5.467786074081071,12.161407511553193,0.023517403033690844
7.305557088,4.105001367607908,11.275375579564443,-0.016045892688801182
7.310557088,2.672864197555259,10.152011846780393,-0.07159250934141993
7.315557088,1.189898356291326,8.802196357132743,-0.1412251142006173
7.320557454,-0.3234978120381771,7.243756191345468,-0.22230237218798662
7.32555812,-1.845367653878809,5.501152174391132,-0.3117643102088177
7.33055812,-3.3526294024328798,3.6049098536555726,-0.40645141087936215
7.335558153,-4.82161450268395,1.5908098779235103,-0.5033951534005741
7.340558153,-6.228690432908244,-0.5011359849202075,-0.6000614654868139
7.345558153,-7.550939323374931,-2.627886624201548,-0.6945332395034759
7.350558119,-8.766857064725347,-4.744705557895105,-0.7856233343458676
7.355558085,-9.85703321459534,-6.806574286370267,-0.8729149793476012
7.360558051,-10.804770642535612,-8.769627365016731,-0.9567318722498347
7.365558051,-11.596606152026009,-10.592549572157559,-1.0380451522527987
7.370558051,-12.222699440464963,-12.237876819105155,-1.1183284175100037
7.375558084,-12.677067062894036,-13.673146918004116,-1.1993746321777545
7.380558117,-12.957649216178256,-14.871853567824795,-1.283089869925883
7.38555815,-13.066208609316128,-15.81416629723978,-1.3712784149229194
7.39055815,-13.008071178802911,-16.487389958636633,-1.4654321593772583
7.39555815,-12.791727232934052,-16.886149151891598,-1.566535048609142
7.400558116,-12.428318559414054,-17.012295247212595,-1.6748910773634025
7.405558116,-11.931042194668185,-16.874546101522263,-1.7899824745650905
7.410558116,-11.314505048528785,-16.487880683287987,-1.9103635020067837
7.415558149,-10.594065367958542,-15.872722052102416,-2.033594765079341
7.420558149,-9.785196918232458,-15.053951771768627,-2.1562228283315243
7.425558149,-8.902909584174257,-14.059806150993582,-2.2738097822313237
7.430558149,-7.961255875245854,-12.92070913418275,-2.3810167614778064
7.435558315,-6.972946853759144,-11.668097891651112,-2.471743984014692
7.440558315,-5.9490937887219,-10.333295147747878,-2.5393275998797655
