Time (s),X (m/s^2),Y (m/s^2),Z (m/s^2)
6.0079655,1.840592779264236,0.32691545909532127,-0.4557046631662709
6.0178915,1.8599470473230344,-0.3871087909729055,-0.5855023241110985
6.0278165,1.8725220676858145,-1.0995925631434573,-0.71251197815104
6.0377425,1.8784691422332251,-1.804317060764097,-0.8351561610686921
6.0476685,1.8779570590820738,-2.495120805044964,-0.9518904807182373
6.0575935,1.8711723622395138,-3.165973215779243,-1.0612276488981047
6.0675195,1.858319901231658,-3.8110464977923124,-1.1617607524082074
6.0774445,1.839623564228494,-4.4247847931039335,-1.2521853356971755
6.0873705,1.81532709525548,-5.001969626683103,-1.3313198758682958
6.0972965,1.7856948990052692,-5.537780762689023,-1.3981242524582758
6.1072215,1.7510127468588765,-6.027851692137341,-1.4517158504320864
6.1171475,1.7115883155472158,-6.468319084211458,-1.4913829847504447
6.1270735,1.6677515140631907,-6.855865644420737,-1.516595396448081
6.1369985,1.6198545813189076,-7.1877559279359415,-1.5270116395773636
6.1469245,1.5682719614061282,-7.461864753273141,-1.5224832516696716
6.1568505,1.513399980090338,-7.6766979511629145,-1.5030556754110203
6.1667755,1.4556563522961814,-7.83140526965484,-1.4689659759117542
6.1767015,1.3954795455119855,-7.925785343358696,-1.420637475850242
6.1866275,1.3333280097284177,-7.960282724658662,-1.3586715061726362
6.1965525,1.269679262191373,-7.935977068426146,-1.2838365359424928
6.2064785,1.2050287855343425,-7.8545646594341765,-1.1970549952158742
6.2164035,1.1398886619864979,-7.718332573328405,-1.0993881381802169
6.2263295,1.0747858286333207,-7.530125865211139,-0.992019312497763
6.2362555,1.010259807280547,-7.293308278100059,-0.876236005435182
6.2461805,0.9468597466343397,-7.011717048035432,-0.7534110251150932
6.2561065,0.8851406202320603,-6.689612446932002,-0.6249831450496222
6.2660325,0.8256584511205016,-6.331622746641772,-0.49243749851008095
6.2759575,0.7689644797354538,-5.942685310267988,-0.35728596810322355
6.2858835,0.7155982493147891,-5.527984523877939,-0.22104778415371606
6.2958095,0.666079647695863,-5.092887279455849,-0.08523052521850659
6.3057345,0.6209000101209792,-4.642876716232721,0.04868829603123802
6.3156605,0.5805124512514681,-4.183484931510878,0.17927887930452407
6.3255865,0.5453216548121569,-3.720225390526332,0.3051758274308356
6.3355115,0.5156734044876726,-3.2585257969554013,0.42509368608520043
6.3454375,0.4918441846000458,-2.8036622206999513,0.5378411360319888
6.3553635,0.4740312061981209,-2.360695302303372,0.6423336517348148
6.3652885,0.4623432188972564,-1.9344093530231374,0.7376044648390838
6.3752145,0.4567924524014859,-1.5292551443501476,0.8228137094865694
6.3851395,0.4572879989218377,-1.1492971350173304,0.8972556735569174
6.3950655,0.4636309032070622,-0.7981658234748831,0.9603641273657126
6.4049915,0.4755111740098315,-0.4790158445911144,1.011715742316037
6.4149165,0.49250687307378027,-0.1944903538647701,1.0510316448631374
6.4248425,0.5140853793532841,0.05330783825606729,1.0781771772831568
6.4347685,0.5396068709777547,0.2628380044654691,1.0931599563380374
6.4446935,0.5683300175644508,0.43313582181345006,1.0961263328127813
6.4546195,0.5994198307791383,0.5638200769548234,1.087356359509036
6.4645455,0.6319575798275054,0.655091648405038,1.0672573757291675
6.4744705,0.6649526390218762,0.7077247528780484,1.0363563162204625
6.4843965,0.6973560963201173,0.7230505385089959,0.9952908538640531
6.4943225,0.7280759162029767,0.7029332039244143,0.9447994878757254
6.5042475,0.7559934197932746,0.6497389172797257,0.8857106916638581
6.5141735,0.7799808215538655,0.5662979024115307,0.8189312357920608
6.5240995,0.7989195454019659,0.4558601495220573,0.7454338019396228
6.5340245,0.8117190320388231,0.3220452950154884,0.6662440046433492
6.5439505,0.8173357413873509,0.1687872988120384,0.5824269404561633
6.5538755,0.8147920475986081,0.00027462669985591355,0.4950733899592793
6.5638015,0.8031947187325964,-0.1791132815165194,0.40528580697771577
6.5737275,0.7817526694349552,-0.36487241193054565,0.3141642404915439
6.5836525,0.7497936735119156,-0.5524425423910964,0.22279234624234764
6.5935785,0.7067797250188617,-0.7372766267799384,0.13222365487930146
6.6035045,0.6523207420268001,-0.9149102161354209,0.043468270417526086
6.6134295,0.5861863173801155,-1.0810299129805143,-0.04251982365189647
6.6233555,0.5083152364310664,-1.2315398458729145,-0.12485467313167721
6.6332815,0.4188225039177904,-1.3626251554471616,-0.20272930230622532
6.6432065,0.31800365168803424,-1.4708115020043848,-0.27542553448482665
6.6531325,0.20633613648408683,-1.55301963917485,-0.3423225219725412
6.6630585,0.08447768295395817,-1.606614149618907,-0.40290383236123706
6.6729835,-0.046738518371371954,-1.6294455079388255,-0.45676294908473114
6.6829095,-0.1863117857098182,-1.6198847226248494,-0.503607058634954
6.6928355,-0.33308505161533475,-1.5768499117254124,-0.5432590164979225
6.7027605,-0.485758984409911,-1.4998242848937808,-0.5756574105850171
6.7126865,-0.6429089351176337,-1.3888651373784107,-0.6008546758316988
6.7226125,-0.8030044451737244,-1.2446036100278812,-0.6190132567470079
6.7325375,-0.9644309800763426,-1.068235133526228,-0.6303998643815403
6.7424635,-1.1255134925217267,-0.8615006525706964,-0.6353779263985472
6.7523895,-1.2845413691942462,-0.626658910870406,-0.6343983780481481
6.7623145,-1.4397942804994117,-0.3664502621180568,-0.6279889832944611
6.7722405,-1.5895684327053983,-0.08405264603116967,-0.6167424075695366
6.7821655,-1.7322027166184175,0.2169694758056544,-0.6013032873110541
6.7920915,-1.8661042548425288,0.5327222975951004,-0.5823545576754656
6.8020175,-1.9897728695514498,0.8590449286023326,-0.5606033094255165
6.8119425,-2.101824023428034,1.1915756255235004,-0.5367664496403242
6.8218685,-2.201009826847149,1.5258208415305827,-0.5115564390311477
6.8317945,-2.286237752774839,1.8572259147127175,-0.4856673715450214
6.8417195,-2.3565867548450186,2.181246221504324,-0.45976165002015945
6.8516455,-2.411320541012613,2.4934176435627435,-0.43445749540651163
6.8615715,-2.4498978128253044,2.7894252359846683,-0.4103175067529268
6.8714965,-2.47197933728629,3.065169037922396,-0.3878384650806209
6.8814225,-2.4774317738811367,3.3168260318269356,-0.36744254725579717
6.8913485,-2.4663282335130376,3.540907334047241,-0.3494700874545505
6.9012735,-2.4389455989320856,3.734309787105483,-0.3341739951971894
6.9111995,-2.3957586877956274,3.8943612220012214,-0.32171591113969705
6.9211255,-2.3374313895924397,4.0188587660788055,-0.312164155129395
6.9310505,-2.2648049558380556,4.106099686681674,-0.30549349509418106
6.9409765,-2.178883668339421,4.154904381397093,-0.3015867392720832
6.9509025,-2.0808181517577506,4.164631250680245,-0.30023812723347276
6.9608275,-1.9718866330486746,4.13518331657894,-0.30115846681966585
6.9707535,-1.853474480915672,4.067006580584153,-0.3039819349317229
6.9806795,-1.7270523829330882,3.9610802425239817,-0.3082744307652262
6.9906045,-1.594153536612688,3.818899028902053,-0.31354334117218985
7.000530208,-1.4563502438359233,3.642448001007726,-0.31924854961184634
7.010455208,-1.3152303062733268,3.4341703281836318,-0.3248144927293912
7.020381208,-1.1723736227243826,3.196928617049085,-0.32964304220125046
7.030307208,-1.0293293867006978,2.933960479598588,-0.333126964783972
7.040232208,-0.8875942718674469,2.64882909768621,-0.3346636917997567
7.050158208,-0.7485919717837061,2.345369595079341,-0.33366911235013536
7.060084208,-0.6136544275119413,2.027632060398413,-0.3295910943102621
7.070009208,-0.4840050326474285,1.6998220779099789,-0.32192243565197126
7.079935208,-0.36074405215537425,1.3662396238488008,-0.31021295783848896
7.089861208,-0.24483643196639118,1.031217179117116,-0.2940804739561795
7.099786208,-0.13710211384923682,0.6990578981972289,-0.27322039582728114
7.109712208,-0.038208907960350834,0.3739746601030942,-0.2474137832476272
7.119638208,0.05133208324859382,0.060030809998038254,-0.21653368040066268
7.129563208,0.13116854867430616,-0.23891662123940446,-0.18054962594145424
7.139489208,0.20110666310321834,-0.5192704589271381,-0.1395302627716659
7.149415208,0.26110853135622347,-0.7777429603751315,-0.09364401163661114
7.159340208,0.31128754709973766,-1.011400736755803,-0.04315781065043805
7.169266208,0.3519018491617346,-1.2177043805866172,0.011566038643501683
7.179192208,0.38334606747773553,-1.394542215024988,0.07007483959922493
7.189117208,0.4061415511937584,-1.5402576501257708,0.13183216681284982
7.199043208,0.42092526266298813,-1.6536697155637412,0.19622607858510707
7.208969208,0.42843750395466895,-1.7340864400259646,0.26257868950753666
7.218894208,0.4295086199850984,-1.7813108616455577,0.3301568851484728
7.228820208,0.4250447994430931,-1.7956395754577452,0.39818393552163833
7.238746208,0.4160130769346917,-1.7778538461199749,0.46585175341499546
7.248671208,0.40342563140780585,-1.7292034316153213,0.53233355191206
7.258597208,0.3883234784906433,-1.6513833731455259,0.5967966778153297
7.268523208,0.3717596674039359,-1.5465041069335759,0.6584154248672505
7.278448208,0.35478211562642464,-1.4170553466877802,0.7163836553658477
7.288374208,0.33841624606490595,-1.2658642751411944,0.7699270760623327
7.298300208,0.3236476316203917,-1.09604867377093,0.8183150207701768
7.308225208,0.31140489803213395,-0.9109657115279849,0.8608715892014154
7.318151208,0.30254318077833653,-0.714157199529398,0.8969859858917251
7.328077208,0.29782846571192384,-0.509292189368953,0.9261219022186535
7.338002208,0.29792315787298695,-0.3001078409771847,0.9478257926980994
7.347928208,0.30337321615979596,-0.0903495105158223,0.9617339145920255
7.357854208,0.31459716619899547,0.1162889874342615,0.9675780254479366
7.367779208,0.3318772646249516,0.31622400209585133,0.9651896630510538
7.377705208,0.3553530390674605,0.5060386384198733,0.954502962788171
7.387630208,0.3850173724116451,0.6825364424111445,0.9355559960335939
7.397556208,0.42071524000547894,0.8427913527874492,0.9084906385970988
7.407482208,0.4621451472969841,0.9841931512385574,0.8735510000460696
7.417407208,0.508863255833737,1.1044877123843242,0.831080462577527
7.427333208,0.560290130219143,1.2018114323552325,0.7815173919172563
7.437259208,0.6157199890300522,1.2747193011651947,0.7253895928213306
7.447184208,0.6743322990676491,1.3222061778976923,0.663307589277195
7.457110208,0.7352055139397263,1.3437209280967894,0.5959568157976551
7.467036208,0.7973327241332451,1.3391731883919973,0.524088812029904
7.476961208,0.8596389563182443,1.308932632966391,0.4485115183537341
7.486887208,0.9209998350763662,1.2538207286511442,0.370078775303989
7.496813208,0.9802613010689591,1.175095078892864,0.2896791350319038
7.506738208,1.0362600658995098,1.0744265704630283,0.2082240991898617
7.516664208,1.0878444749357477,0.9538696496479188,0.12663590478433948
7.526590208,1.1338954439367919,0.815826165897854,0.045834987897649684
7.536515208,1.1733471323264915,0.6630033293522074,-0.03327273467018729
7.546441208,1.2052070149981398,0.4983664324870053,-0.10980861373303444
7.556367208,1.2285750162716333,0.3250870828113013,-0.18293388137907643
7.566292208,1.2426613751893532,0.1464877800708399,-0.2518619544308713
7.576218208,1.2468029216391674,-0.03401625511419419,-0.31587024407882003
7.586144208,1.2404774582215377,-0.21297703624908496,-0.3743112827431866
7.596069208,1.223315963391043,-0.3869745437475956,-0.4266229767000091
7.605995208,1.1951123571869742,-0.5526772063684147,-0.47233779372443424
7.615921208,1.1558306018385638,-0.7069010960633972,-0.5110906992620119
7.625846208,1.1056089457496476,-0.8466668108962945,-0.5426256623980246
7.635772208,1.0447611608922187,-0.9692530455094088,-0.5668005640986461
7.645698208,0.973774670345666,-1.0722458880430328,-0.5835903549817547
7.655623208,0.8933055142128885,-1.153582937315446,-0.5930883286133823
7.665549208,0.8041701579699198,-1.211591406150647,-0.5955053996935121
7.675475208,0.7073342071764531,-1.2450194674101813,-0.5911673055933636
7.685400208,0.6038981561486639,-1.253060208534512,-0.5805096858905137
7.695326208,0.49508036517264686,-1.2353676866708212,-0.5640710385483126
7.705252208,0.38219753012209573,-1.1920647176140773,-0.5424836023797498
7.715177208,0.2666429780392174,-1.1237421859548533,-0.516462271075088
7.725103208,0.14986318904097523,-1.0314498290796728,-0.4867917010100999
7.735029208,0.03333300443370572,-0.9166786207958124,-0.45431182909231727
7.744954208,-0.08146997094112879,-0.7813350562147449,-0.41990206345356273
7.754880208,-0.19309123005566564,-0.6277078116979977,-0.3844644455301784
7.764806208,-0.3001249281511731,-0.4584274156145474,-0.3489061065015885
7.774731208,-0.40123858753716113,-0.27641971147681466,-0.31412135594212387
7.784657208,-0.495196394581423,-0.08485401968065516,-0.28097374776463574
7.794583208,-0.5808805723862049,0.11291299629659868,-0.2502784690315902
7.804508208,-0.6573103612497316,0.3133966811670671,-0.22278539151494278
7.814434208,-0.7236582033227852,0.5130458345146723,-0.19916311482020543
7.824360208,-0.7792628045796682,0.7083051142781306,-0.1799843145608373
7.834285208,-0.823638831302818,0.8956772666365673,-0.16571269041031889
7.844211208,-0.8564830845547013,1.0717840807084982,-0.1566917870505893
7.854137208,-0.8776770805806247,1.2334250116054986,-0.15313593540514558
7.864062208,-0.887286045060641,1.377632473947447,-0.15512353127368583
7.873988208,-0.8855544029027577,1.5017228788609476,-0.16259283331566804
7.883914208,-0.8728979121818584,1.603342570822004,-0.17534042247967346
7.893839208,-0.8498926512481966,1.6805079167865093,-0.1930224206693203
7.903765208,-0.8172611227143466,1.7316389086602009,-0.21515851782221476
7.913691208,-0.7758557873899604,1.7555857599503235,-0.24113880403138593
7.923616208,-0.7266403851782707,1.7516481058029845,-0.27023334774987035
7.933542208,-0.6706694381307884,1.7195865492339328,-0.3016044038934442
7.943468208,-0.609066362836536,1.6596264320163148,-0.3343210784239789
7.953393208,-0.5430006446124623,1.5724538437838007,-0.36737622025966876
7.963319208,-0.4736645440696902,1.4592040150710726,-0.3997052581764448
7.973245208,-0.4022498167902431,1.3214423662118204,-0.43020665003694375
7.983170208,-0.32992492728600914,1.1611385999644348,-0.4577635639775011
7.993096208,-0.2578132261133827,0.9806343269824996,-0.4812663667960994
8.003023333,-0.18697253124906024,0.7826047977915914,-0.4996354569960463
8.012948333,-0.11837651157673434,0.5700153847785737,-0.5118439540365367
8.022874333,-0.05289821516504593,0.34607351718363244,-0.5169397455706137
8.032800333,0.008703976472627325,0.11417682462050208,-0.5140664016408569
8.042725333,0.06579774966396104,-0.12214170891197822,-0.5024824870729889
8.052651333,0.11788545807290461,-0.3592707392121742,-0.481578838646551
8.062577333,0.16460982230817295,-0.5935788320751825,-0.4508934214971382
8.072502333,0.20575668970851135,-0.8214731158865802,-0.4101234398665382
8.082428333,0.2412548715888909,-1.0394574111216146,-0.3591344496560089
8.092354333,0.2711731302224116,-1.2441889286887986,-0.29796630036048216
8.102279333,0.29571443851754114,-1.4325326359403994,-0.22683581608855327
8.112205333,0.3152076800202755,-1.601612406979341,-0.1461362042936081
8.122131333,0.33009699472364795,-1.7488581053849144,-0.05643325351024537
8.132056333,0.34092900690817174,-1.8720477959420387,0.04154155352172331
8.141982333,0.34833819443549385,-1.9693443504743016,0.14690082823075779
8.151908333,0.3530306740549412,-2.0393258039055957,0.258613734841369
8.161833333,0.3557666846733608,-2.0810089312437214,0.37552084747378484
8.171759333,0.3573420524033135,-2.09386565224003,0.49635109941205835
8.181685333,0.3585689217796033,-2.0778320211329477,0.6197404901280616
8.191610333,0.36025604137779116,-2.0333097126603126,0.7442521970487765
8.201536333,0.3631889012363351,-1.9611600601227723,0.8683977319884238
8.211462333,0.36811003222523453,-1.862690828476374,0.9906587838206354
8.221387333,0.3756997900932169,-1.7396360128011117,1.1095093942706094
8.231313333,0.3865579563267298,-1.5941290413154936,1.2234381209156833
8.241239333,0.40118649236201154,-1.428669835060142,1.3309698524707483
8.251164333,0.41997378171272026,-1.2460862369901204,1.4306869577420287
8.261090333,0.44318068531146476,-1.0494903759951688,1.5212494709664128
8.271016333,0.47092871921058493,-0.8422305814101754,1.6014140416798588
8.280941333,0.5031906423043224,-0.6278395155374417,1.6700514055824764
8.290867333,0.5397837162944953,-0.4099792479571154,1.726162162431428
8.300793333,0.5803658706324848,-0.19238405424706417,1.768890676345402
8.310718333,0.6244349699817869,0.021198222736929048,1.7975369426477978
8.320644333,0.6713313386762437,0.22706536654676499,1.8115662941343327
8.330570333,0.720243644332963,0.42161962697272026,1.810616849200028
8.340495333,0.7702181815168514,0.6014252924391519,1.7945046345725415
8.350421333,0.8201715279787443,0.7632640983218454,1.763226345562643
8.360347333,0.868906473012079,0.904187610485619,1.7169597358123618
8.370272333,0.915131042409388,1.0215657738812856,1.656061656113286
8.380198333,0.9574803698006376,1.113130876294829,1.5810637878005567
8.390124333,0.9945410922802258,1.1770162432186764,1.4926661400936174
8.400049333,1.024877881480454,1.2117890491284298,1.3917284023589267
8.409975333,1.04706166158647,1.2164767034785786,1.2792592622212369
8.419901333,1.0596990148023766,1.1905863487758659,1.1564038197164332
8.429826333,1.0614622336607833,1.1341170960620732,1.0244292466604643
8.439752333,1.0511194490580282,1.0475647220573308,0.8847088588386233
8.449678333,1.0275642434072259,0.9319186624067635,0.7387047861094377
8.459603333,0.9898441501296696,0.7886512555239704,0.5879494417254013
8.469529333,0.9371874440329219,0.6196993185276416,0.4340260065361121
8.479455333,0.8690276418214782,0.4274382665632042,0.2785481554382627
8.489380333,0.7850251576086,0.21464911439323212,0.12313926187700378
8.499306333,0.6850855943673689,-0.015521180365406196,-0.030588678324037583
8.509232333,0.5693741984344747,-0.259605463156205,-0.18105615873274358
8.519157333,0.4383260601519365,-0.5138675507951389,-0.32673706100253536
8.529083333,0.2926517092084354,-0.7743580700782388,-0.46617908771374933
8.539009333,0.1333378281496924,-1.0369741405003043,-0.5980234723243495
8.548934333,-0.03835710802946856,-1.2975220109208585,-0.7210237055703435
8.558860333,-0.2209123645256674,-1.5517817050739877,-0.8340630153684518
8.568786333,-0.41255964784939464,-1.7955726841009791,-0.9361703367246544
8.578711333,-0.6113028632958495,-2.0248194954804215,-1.026534509604589
8.588637333,-0.814942704522229,-2.2356163477048874,-1.104516446671997
8.598563333,-1.0211057380582873,-2.4242895317153597,-1.1696590204038702
8.608488333,-1.2272775351740068,-2.587456608605041,-1.2216944322532806
8.618414333,-1.4308392998294812,-2.7220813046924235,-1.2605488475061355
8.628340333,-1.6291073493826866,-2.825523105209145,-1.2863441103402642
8.638265333,-1.8193747293259612,-2.8955806198420064,-1.2993963958525194
8.648191333,-1.998954188517342,-2.9305279076761512,-1.3002117096392516
8.658117333,-2.1652217089848205,-2.9291430927902016,-1.2894782086963406
8.668043333,-2.3156597738323947,-2.8907287679241427,-1.2680553858367285
8.677968333,-2.4478995665515426,-2.81512386173359,-1.2369602298382305
8.687894333,-2.5597613244572504,-2.7027068235090415,-1.1973505431971296
8.697819333,-2.6492921174374913,-2.554390148751202,-1.1505056666975475
8.707745333,-2.714800387651792,-2.3716064252342512,-1.0978049211104701
8.717671333,-2.7548866604414726,-2.1562862218875094,-1.0407041269001183
8.727597333,-2.768469916235661,-1.9108282736589486,-0.9807106012877306
8.737522333,-2.754809195521499,-1.6380625359757477,-0.9193570602076306
8.747448333,-2.7135200941054474,-1.3412067926187405,-0.8581748733265416
8.757374333,-2.644585893733228,-1.0238175995012715,-0.7986671346806459
8.767299333,-2.5483631620811766,-0.6897364319436138,-0.7422820191311
8.777225333,-2.4255817438960596,-0.34303197241935196,-0.690386894525981
8.787151333,-2.2773391495840722,0.01206047250101154,-0.6442436503367331
8.797076333,-2.1050894274423673,0.37120140469799545,-0.6049856858253099
8.807002333,-1.9106266804083907,0.7300103826327813,-0.5735969758198599
8.816928333,-1.6960634579204477,1.0841290583856804,-0.5508936015084575
8.826853333,-1.4638043191165586,1.4292830029145944,-0.5375080979344548
