Time (s),X (m/s^2),Y (m/s^2),Z (m/s^2)
6.006021125,-0.6480930291766748,0.175471671751613,-0.24438606958484083
6.015947125,-0.646815937354963,-2.0172226683850805,-0.6789456732328898
6.025873125,-0.610564158586652,-4.1424030969383105,-1.1112894719706605
6.035799125,-0.5250905740860266,-6.131909036362842,-1.5353351085539468
6.045725125,-0.3792160754430418,-7.920063083513234,-1.9452216615122644
6.055652125,-0.16560433066316763,-9.445837922151673,-2.335439320458747
6.065578125,0.11870183841569154,-10.654978811615127,-2.700943443957543
6.075504125,0.4720196196729532,-11.502011778681334,-3.0372495886258237
6.085430125,0.888060479564726,-11.952063125959292,-3.3405084209420233
6.095356125,1.3562598596913897,-11.98241409108952,-3.607561566597838
6.105282125,1.862383108596952,-11.583716279725406,-3.8359804429014974
6.115208125,2.389370042668854,-10.760799562294562,-4.024089557472469
6.125134125,2.9183644735259153,-9.533014944216932,-4.170973855139878
6.135060125,3.4298624744606148,-7.934070524921512,-4.276467144165385
6.144987125,3.904905115055542,-6.011338478452124,-4.341116633329068
6.154913125,4.326238697167022,-3.8246337990454062,-4.366118634303925
6.164839125,4.679368492942214,-1.4444896548827086,-4.353223238726406
6.174765125,4.953440140331214,1.0500222385253828,-4.3046102509508275
6.184691125,5.141895090724956,3.5738563167450637,-4.2227427755577915
6.194617125,5.242861619548751,6.038854715252403,-4.1102074019221195
6.204543125,5.259259849086757,8.356803118908818,-3.9695512927767447
6.214469125,5.19861689064587,10.442568572991146,-3.8031274869572633
6.224396125,5.072605319701645,12.217201896633577,-3.6129603657003626
6.234322125,4.896333609557248,13.610886995507574,-3.4006429029944147
6.244248125,4.687430185579089,14.565623438955678,-3.1672756300842235
6.254174125,4.464973177493997,15.037536840057081,-2.9134542643842813
6.264100125,4.24832565949244,14.998723543698365,-2.6393091140510405
6.274026125,4.0559410616067,14.438551588048675,-2.3445953894501437
6.283952125,3.904205328859052,13.364358532037679,-2.028830200245725
6.293878125,3.8063810861932814,11.801508059760314,-1.6914696549736965
6.303805125,3.771714364935274,9.792790580445946,-1.3321178514852114
6.313731125,3.804756345140054,7.397177497044339,-0.9507580694968765
6.323657125,3.904941322837109,4.687963588189475,-0.5479947144285338
6.333583125,4.06644825344433,1.7503562690388657,-0.12529246296952215
6.343509125,4.2783574820503745,-1.3214064259479703,0.3148030575205682
6.353435125,4.525097523099128,-4.427306391223363,0.7684803383187084
6.363361125,4.787159989779324,-7.465044153733593,1.2305307170030073
6.373288125,5.042045011007379,-10.33365216419379,1.6942879890415128
6.383214125,5.265385600388882,-12.937081361666571,2.151653832080941
6.393140125,5.432188195301841,-15.187618075629965,2.59321974050006
6.403066125,5.518118709038903,-17.008993118354883,3.008490071191984
6.412992125,5.500759845536603,-18.339056084201005,3.386203700809714
6.422918125,5.360767120750048,-19.13190529197792,3.7147449867221622
6.4328435,5.0828587238260665,-19.359387464812045,3.9826290570265233
6.4427695,4.65658783642866,-19.01191096475146,4.1790419201496105
6.4526965,4.076863748687537,-18.098551094140557,4.2944120479525605
6.4626225,3.344207339608428,-16.64646295852442,4.320986710301183
6.4725485,2.4647443326913763,-14.69965259740168,4.253383563975316
6.4824745,1.4499542778686434,-12.317186405752146,4.089086199989571
6.4924005,0.3162039283499999,-9.570939677943601,3.828852010766936
6.5023265,-0.9158990174484538,-6.542996949129372,3.477002289343004
6.5122525,-2.222291322769087,-3.322820796848346,3.0415680875871742
6.5221795,-3.5763360588760764,-0.0043035437770686915,2.534270857303715
6.5321055,-4.949757899605233,3.317190591237518,1.9703238975563981
6.5420315,-6.313590225656902,6.547695638079983,1.3680487506158168
6.5519575,-7.639095092766778,9.59734169047335,0.7483096104850107
6.5618835,-8.898620906902824,12.382809831825849,0.1337782692045102
6.5718095,-10.066367393986114,14.829488323512123,-0.45194811301703325
6.5817355,-11.11903309935758,16.87328886459423,-0.9853443396129568
6.5916625,-12.036327159526172,18.462095753013784,-1.4440280870781588
6.6015885,-12.801334349336887,19.55683374132362,-1.8078542461916334
6.6115145,-13.40073026413289,20.13215204731317,-2.0599753970496044
6.6214405,-13.824851792381097,20.176732255747996,-2.1878062835013092
6.6313665,-14.067636574979504,19.693236672677312,-2.1838286999242302
6.6412925,-14.126453505203273,18.6979209843578,-2.0461762717411767
6.6512185,-14.001853599304845,17.219940764711357,-1.7789471544332818
6.6611455,-13.697275352477021,15.300385419457163,-1.3922073064916403
6.6710715,-13.218739474673063,12.991075412453423,-0.90166768968078
6.6809975,-12.574563901899356,10.35315897973339,-0.3280439837668782
6.6909235,-11.775121832560727,7.45554334652491,0.30386659508247515
6.7008495,-10.83265500878353,4.373193661656347,0.9663348779698946
6.7107755,-9.761143448857133,1.1853314398708068,1.6300046991584547
6.7207015,-8.57622268951106,-2.0264363267717296,2.265275294777283
6.7306285,-7.295131150576915,-5.180026233572692,2.843682388831574
6.7405545,-5.936664065808626,-8.194794335013116,3.3392029384289525
6.7504805,-4.521106947264137,-10.99342743352018,3.7294160074211447
6.7604065,-3.0701210010592854,-13.503778872155028,3.996463112485693
6.7703325,-1.60655528056096,-15.660618838384714,4.127765084636036
6.7802585,-0.15416535393318112,-17.407269941865742,4.116467987311314
6.7901845,1.2627746223985514,-18.697098504057625,3.9616065298643885
6.8001115,2.619970825971177,-19.494829984223188,3.6679883766575765
6.8100375,3.8937142718157602,-19.777653491739304,3.2458159681216903
6.8199635,5.061575064933996,-19.53607652373619,2.7100737968342705
6.8298895,6.103160197380687,-18.77448856634908,2.079718786069287
6.8398155,7.000899179764835,-17.511392624475594,1.3767197807338678
6.8497415,7.740814062992061,-15.779268231583098,0.6249991719885348
6.8596685,8.313225304788297,-13.624038457732478,-0.15066515541152634
6.8695945,8.713343204415688,-11.10412655206988,-0.9257171260852315
6.8795205,8.941696830796104,-8.289104111652657,-1.6768207294207114
6.8894465,9.004358739512258,-5.257950517578947,-2.3827283323530266
6.8993725,8.912934005354874,-2.0969610658534177,-3.024980215408175
6.9092985,8.684295328829498,1.1026427623783746,-3.5884110762489216
6.9192255,8.34006106500792,4.2473339861210615,-4.061453879542684
6.9291515,7.905828781144252,7.2440542267942645,-4.436244639436174
6.9390775,7.410192136065033,10.003055849945778,-4.7085431801777
6.9490035,6.883582221816977,12.440721658372468,-4.877494604843823
6.9589295,6.356984990237213,14.4822692315972,-4.945263642989628
6.9688555,5.860593509610172,16.064247288441717,-4.916578499150151
6.9787825,5.422457599818839,17.136734530650234,-4.798221917622007
6.9887085,5.06719420324626,17.665157515047802,-4.598505279139325
6.9986345,4.81481999723366,17.631653406727303,-4.326757533619338
7.0085605,4.679763443120523,17.035916032676305,-3.9928556137977598
7.0184865,4.670106782160358,15.895479287663425,-3.606817418954427
7.0284125,4.787099494784212,14.245410211436305,-3.178472884383791
7.0383395,5.024973559322856,12.137404340417348,-2.7172230316463515
7.0482655,5.371077717048263,9.638297514310272,-2.2318910283031728
7.0581915,5.806333284191634,6.828030455562485,-1.7306631677934696
7.0681175,6.305998451603834,3.7971244173568217,-1.2211116066100491
7.0780435,6.840712215154227,0.6437472219876316,-0.7102850933634398
7.0879695,7.377773885699255,-2.529531852506268,-0.2048491769171843
7.0978965,7.882600388006723,-5.619183669840085,0.2887462325432642
7.1078225,8.320292167807246,-8.524230371666768,0.7640963634189384
7.1177485,8.65723034682219,-11.14969167247143,1.2146932485522912
7.1276745,8.862623523885654,-13.409830187778173,1.633823222680694
7.1376005,8.909922890533874,-15.231064363397548,2.0145298310378235
7.1475265,8.778029612341971,-16.554429181972264,2.3496552437259943
7.1574535,8.452229174933448,-17.3374834195293,2.631965679096796
7.1673795,7.924803778072963,-17.55558751260919,2.8543591774954478
7.1773055,7.195295234708886,-17.202507275469944,3.010148071483678
7.1872315,6.270415216322879,-16.290333926788918,3.093403477448673
7.1971575,5.1636239298849445,-14.848746883155787,3.099344622869008
7.2070835,3.894419128654199,-12.9236784826517,3.024751594592619
7.2170105,2.487392540501501,-10.575465688671734,2.8683761570105646
7.2269365,0.971119678598837,-7.87659097044038,2.6313218449710214
7.2368625,-0.6230479140094833,-4.909122824734562,2.3173621432749303
7.2467885,-2.262220581419122,-1.7619669570057672,1.9331651424230638
7.2567145,-3.913176438712373,1.4719662330727727,1.4883954092313403
7.2666415,-5.543480782145813,4.698581680471896,0.9956690820733058
7.2765675,-7.1224741187849485,7.825323009384532,0.4703458842013201
7.2864935,-8.622094631531418,10.763728318818636,-0.06984894326957103
7.2964195,-10.017512247965472,13.431761135342224,-0.6053696093185676
7.3063455,-11.28756288627266,15.75587246835574,-1.1155480268643736
7.3162725,-12.414982380039985,17.67276208378495,-1.5794214937555715
7.3261985,-13.386449625697786,19.13081787513851,-1.9766562012464195
7.3361245,-14.19245737733711,20.09122136255607,-2.2885239725290876
7.3460505,-14.827036715227248,20.528714923152396,-2.4988816700379224
7.3559765,-15.287367588300732,20.43203255460976,-2.5950963086196066
7.3659025,-15.573313064500363,19.804001008215184,-2.568855013356309
7.3758295,-15.686918840598482,18.661322111952238,-2.4167989092562836
7.3857555,-15.631921498948094,17.03405016613563,-2.140925363054701
7.3956815,-15.413307882151406,14.964780651209924,-1.7487151281723194
7.4056075,-15.036962780747746,12.507568318131074,-1.2529603918335541
7.4155335,-14.509432647410655,9.72659418609571,-0.6712947153600777
7.4254605,-13.8378202121997,6.694602503862022,-0.02545176566659104
7.435383667,-13.029810492944014,3.4911311618400505,0.6596989195758151
7.445309667,-12.093814620447674,0.20056298805971734,1.3572772586053516
7.455235667,-11.03920547600719,-3.0899693211228474,2.039611026716257
7.465161667,-9.876609261962797,-6.29278594011468,2.679478648405118
7.475087667,-8.618210442862898,-9.321925854014783,3.2513106103560094
7.485014667,-7.278024457848375,-12.095426514081701,3.732289212010553
7.494940667,-5.872093423352984,-14.537563902165438,4.103294178421575
7.504866667,-4.418564637595737,-16.58099734515071,4.349651750398746
7.514792667,-2.9376196681172244,-18.16876245896318,4.461656898978357
7.524718667,-1.451232493998341,-19.25605556363921,4.4348514867467985
7.534645667,0.01725217907972035,-19.81175325749169,4.270054482605279
7.544571667,1.443715449155787,-19.819611462017438,3.9731528384079136
7.554497667,2.8040162621792932,-19.27908979609895,3.5546729050304506
7.564423667,4.074865656353702,-18.205750872206558,3.029162291769411
7.574349667,5.234777323771278,-16.63119137252767,2.414420961921721
7.584276667,6.265038580239612,-14.602473423234315,1.730627941396448
7.594202667,7.15063935410937,-12.181040962046554,0.9994156840029965
7.604128667,7.881094607707194,-9.44112586817304,0.24294683686229068
7.614054667,8.45109814398666,-6.467671308112488,-0.516953472119119
7.623980667,8.86095316847858,-3.3538232195373596,-1.2595636828384067
7.633907667,9.116736984766602,-0.19806303814393386,-1.9658959915624208
7.643833667,9.230173006778132,2.898926185501349,-2.619171110671069
7.653759667,9.218201643909271,5.837553451513941,-3.2051322581147463
7.663685667,9.102261022003738,8.522656592024841,-3.7122047552733397
7.673612667,8.907307272197432,10.866760511374718,-4.131516491949752
7.683538667,8.66062071170996,12.793134999695521,-4.456801281660315
7.693464667,8.390457541912147,14.238534736375662,-4.684212239830501
7.703390667,8.124616126830487,15.155513239196242,-4.812075347542107
7.713316667,7.8889923631269845,15.51421601645089,-4.840613578828042
7.723243667,7.706200239458994,15.30357565284053,-4.7716694047398756
7.733169667,7.594331603689634,14.53185258212007,-4.60844925032425
7.743095667,7.565923526499723,13.226489276684035,-4.355308806051682
7.753021667,7.627192482142426,11.433271565767084,-4.01759328660483
7.762947667,7.7775819326120414,9.214817581145686,-3.601541278486525
7.772874667,8.009654169461054,6.648441311811163,-3.114254359016805
7.782800667,8.30933919215293,3.823463075279214,-2.5637275175565675
7.792726667,8.656534003285133,0.8380626529939398,-1.9589283006625033
7.802652667,9.026026110126319,-2.2042084416115326,-1.3099062466555422
7.812578667,9.388696408580863,-5.198122114107594,-0.6279090697244417
7.822505667,9.712940153135388,-8.040530707238023,0.07452147832815885
7.832431667,9.966231447609436,-10.634034206130032,0.7835027525578027
7.842357667,10.116747486403048,-12.890406740291523,1.4838411505358158
7.852283667,10.134964289524678,-14.733639861128514,2.1591625964056598
7.862210667,9.995136499914176,-16.102476212002543,2.7921602572860853
7.872136667,9.6765805891676,-16.95233073112515,3.3649671902021296
7.882062667,9.16469399025344,-17.256526580353164,3.859652187938028
7.891988667,8.451661800726633,-17.006808271560722,4.258828029787784
7.901914667,7.5368258103452215,-16.213132886972407,4.546352683552608
7.911841667,6.426714404460037,-14.902778710162275,4.708095632717108
7.921767667,5.134752969067282,-13.118845159269991,4.732733636623668
7.931693667,3.6806906325719364,-10.918245179685334,4.61253346985999
7.941619667,2.0897900991419998,-8.369309176485402,4.3440743348182345
7.951546667,0.3918336644316605,-5.549127873014602,3.9288604606810513
7.961472667,-1.379998752202988,-2.5407611928867024,3.3737753753657387
7.971398667,-3.1903237573885677,0.5695670406836021,2.6913335804488088
7.981324667,-5.002767243435925,3.6951814706794672,1.8996926870386561
7.991250667,-6.781146183349787,6.75148402541274,1.0223990970666343
8.001177667,-8.490575281702753,9.658227462095246,0.0878525530625263
8.011103667,-10.098460749325737,12.341481805010462,-0.8715111634368237
8.021029667,-11.57535066889172,14.735261547158327,-1.8203049057899363
8.030955667,-12.895619147790137,16.782799968054555,-2.721511820484147
8.040882667,-14.03796954110227,18.43747338420237,-3.5379976346452047
8.050808667,-14.985750270882884,19.663391993093267,-4.23415192784406
8.060734667,-15.727084951008083,20.435684861710733,-4.7775828887431135
8.070660667,-16.254826546385466,20.74051452679808,-5.1407784857718495
8.080586667,-16.566353211373144,20.574861779141578,-5.302638807656864
8.090513667,-16.66323124185043,19.946123586354748,-5.249780991354015
8.100439667,-16.550777727599883,18.871566705247126,-4.977521255125889
8.110365667,-16.237560837442192,17.377676258768744,-4.490449842960099
8.120291667,-15.73487768622021,15.499432329193285,-3.802536065374718
8.130218667,-15.056247283976788,13.279538440237873,-2.936732913117163
8.140144667,-14.216949212335189,10.767614232864194,-1.9240911381151031
8.150070667,-13.233628829183656,8.019352398793814,-0.8024340716313345
8.159996667,-12.123978956593369,5.095629469269743,0.38532159799130855
8.169922667,-10.906497716723234,2.061553202553272,1.5930924943583176
8.179849667,-9.600313282553438,-1.0145735290034632,2.773687623269975
8.189775667,-8.225059259522315,-4.0623918745646765,3.88088650101704
8.199701667,-6.800779594653682,-7.010745335719741,4.871431530903777
8.209627667,-5.347839588666723,-9.78906758582058,5.706842649040888
8.219554667,-3.886819707160615,-12.328901561013407,6.3549776465126655
8.229480667,-2.4383710482349,-14.565540266847488,6.79127816564715
8.239406667,-1.0230150345607232,-16.439765614283694,6.999658128652117
8.249332667,0.33912514822794165,-17.89964529464503,6.973007743714769
8.259259667,1.628667729415928,-18.902330529162693,6.713302208603206
8.269185667,2.8273892670491962,-19.415781306441083,6.231320022875267
8.279111667,3.918706251527043,-19.420332515594946,5.545991649000183
8.289037667,4.888203759472662,-18.910006262851912,4.6834151569567615
8.298964667,5.724185253502669,-17.893474465915457,3.675591099729214
8.308890667,6.41821055500737,-16.394582867851756,2.558943328927319
8.318816667,6.965583978556318,-14.452363314060296,1.3727044202898218
8.328742667,7.365752336925561,-12.120484659020024,0.1572521804569474
8.338669667,7.6225735847028915,-9.466121801601,-1.0475145895948483
8.348595667,7.744421558517008,-6.568253803233065,-2.2036791805867963
8.358521667,7.74410034448479,-3.5154323886338674,-3.276621521783195
8.368447667,7.638552369981228,-0.4030890180295005,-4.236096482256944
8.378374667,7.448356213033418,2.66952856246896,-5.05704818799838
8.388300667,7.197022442645924,5.602680678454986,-5.720149904213381
8.398226667,6.91010798076517,8.299596813118468,-6.212073775678644
8.408152667,6.614180959753611,10.669939556901305,-6.5255077422089816
8.418079667,6.33567815643519,12.63313358994715,-6.658947972079948
8.428005667,6.0997051682432835,14.12142402302462,-6.616303286212497
8.4379315,5.92883508345621,15.082536496216184,-6.406352522269164
8.4478575,5.841964181177762,15.481824784383663,-6.042096402378676
8.4577845,5.853283064242725,15.30380960389822,-5.540043099645249
8.4677105,5.971418681417932,14.553034358605068,-4.919463110115159
8.4776365,6.198797110385373,13.254189181311737,-4.201645518221422
8.4875625,6.5312688030117085,11.451482951938674,-3.40918412541479
8.4974895,6.95802722471592,9.207272828333178,-2.5653171963151062
8.5074155,7.461838640375043,6.599991045579973,-1.693338266195676
8.5173415,8.019585729151135,3.7214383007105662,-0.8160879920735283
8.5272675,8.603111484010062,0.6735408665008448,0.0444707155989934
8.5371945,9.180333317248577,-2.4353066250027435,0.8675993078422586
8.5471205,9.716581430713298,-5.494170431474775,1.6340632333545022
8.5570465,10.17610140112534,-8.393622067114253,2.3263606809155237
8.5669725,10.523649592938629,-11.029733088941134,2.928919300038676
8.5768995,10.72610223338395,-13.307855534407466,3.428279630840912
8.5868255,10.753995387007585,-15.146031399738591,3.8132802540845643
8.5967515,10.582914319967768,-16.47789079858663,4.075252990268411
8.6066775,10.194657649522462,-17.254921994058936,4.208228750019658
8.6166045,9.578114866469225,-17.448026289615946,4.20914774646763
8.6265305,8.729815060524867,-17.04830564689576,4.078062434584458
8.6364565,7.654128100426001,-16.0670692128338,3.818317539006308
8.6463825,6.363123639586302,-14.535083966022523,3.436688611812675
8.6563095,4.876114350735204,-12.50113082976809,2.943458753251818
8.6662355,3.218925359928254,-10.029957408925503,2.3524125833641234
8.6761615,1.4229415779428225,-7.199739862632464,1.680727396836173
8.6860875,-0.47601059161190384,-4.099178878468833,0.9487437660013943
8.6960145,-2.4388896972520615,-0.8243590317989192,0.17960174713801813
8.7059405,-4.424718207158173,2.5245017018950797,-0.6012657249169573
8.7158665,-6.3918622909451415,5.8462934456895495,-1.3667838512247907
8.7257935,-8.299266109915964,9.042140063374816,-2.089025056829953
8.7357195,-10.107600712529184,12.018316802824275,-2.740121106204875
8.7456455,-11.780294664913773,14.688884131848058,-3.293274061480377
8.7555715,-13.284420932155662,16.97797888549275,-3.7238326903845493
8.7654985,-14.591422027879922,18.82172047523536,-4.010392053078693
8.7754245,-15.67766281950647,20.169705505640987,-4.135865921504706
8.7853505,-16.524807397937174,20.98607819828069,-4.088474944634349
8.7952765,-17.120023035342296,21.250176302037882,-3.86258871159426
8.8052035,-17.456020579175746,20.956762576371915,-3.4593580148893497
8.8151295,-17.530946739777924,20.115860361150176,-2.887076043158462
8.8250555,-17.34814936764781,18.752218147085422,-2.161215610140061
8.8349815,-16.915841270832022,16.904432581757582,-1.304105389622393
8.8449085,-16.246690396311166,14.623762226389548,-0.34423200705302665
8.8548345,-15.357363517207036,11.972665869381377,0.6848149845609867
8.8647605,-14.268046930772849,9.023099852160865,1.7457063501592804
8.8746865,-13.00196192101248,5.854609699713546,2.7989683407595813
8.8846135,-11.584886017667857,2.5522533687658533,3.804715363816245
8.8945395,-10.04468430465495,-0.7956031546123596,4.724418344123417
8.9044655,-8.410848867566736,-4.099573012292812,5.522608764245535
8.9143925,-6.714039596087125,-7.2715695244189025,6.168426766398711
