Time (s),X (m/s^2),Y (m/s^2),Z (m/s^2)
6.001598792,0.02177492892228899,0.022771746062529227,-2.0926021866430703e-05
6.011525792,0.022620962764998413,0.021384001727881113,0.010078915349004635
6.021451792,0.02340839646513421,0.020257193483193388,0.01916020037269229
6.031378792,0.024110342959660226,0.01965471057598151,0.02632773334948268
6.041304792,0.024681821563130833,0.019806824104451164,0.030847196339572377
6.051231792,0.025058234815246924,0.02089697835884829,0.03220652692286875
6.061157792,0.025161240907271707,0.02305192859333275,0.030157101519472398
6.071084792,0.024911010025525492,0.026336153246295485,0.0247298862249699
6.081010792,0.02424240182884565,0.03075007727447959,0.016224658565620716
6.090937792,0.023121809049252515,0.03623091624512418,0.005174085463198972
6.100863792,0.02156131068346626,0.042654829422700005,-0.007712228727415317
6.110789792,0.01962727190507694,0.04983974659356293,-0.021616555091358496
6.120716792,0.01744145436452002,0.05754946779667122,-0.03568703885736735
6.130642792,0.015173868457781221,0.06550077227272334,-0.04910983356230969
6.140569792,0.013027852338372801,0.07337551404590109,-0.061173306521429896
6.150495792,0.01121905508996325,0.08083861844489164,-0.07131905839731242
6.160422792,0.009950943663638084,0.08756092634009892,-0.0791752871430896
6.170348792,0.009389927011005461,0.09324396317429201,-0.08456950938172227
6.180275792,0.009643086768790436,0.09764284355596663,-0.08752027668274202
6.190201792,0.010740973508167549,0.10058396280932312,-0.088210809926174
6.200127792,0.012627263160607038,0.10197557369527417,-0.08695022893159478
6.210054792,0.015156430802453809,0.10181108772814595,-0.08412915213866741
6.219980792,0.018099939346172496,0.1001661406077914,-0.08017555749284581
6.229907792,0.021160636594815915,0.09719067687721125,-0.0755146581781263
6.239833792,0.023994139279450957,0.09309683649814009,-0.07053446407046207
6.249760792,0.026235219662183652,0.08814301850444628,-0.06555764867845727
6.259686792,0.027526877690623758,0.08261470350516659,-0.06082038183301947
6.269613792,0.027549881102170916,0.07680334450652945,-0.05645930703222319
6.279539792,0.026050727201799236,0.07098533274779108,-0.05250820449131616
6.289466792,0.02286588180597644,0.06540331876254417,-0.04890574312054079
6.299392792,0.017939942453434176,0.06025205796253078,-0.04551498863958561
6.309318792,0.011335538045664485,0.05567054126563383,-0.04215403208823967
6.319245792,0.0032335372478055962,0.05174125204174234,-0.038635250347980155
6.329171792,-0.006076749100655813,0.04849581340235973,-0.034808384355921
6.339098792,-0.01621664427570742,0.045924579150695935,-0.03060034673061219
6.349024792,-0.026744961158439617,0.04398688773673896,-0.02604357185776866
6.358951792,-0.03719049991758177,0.0426193079831034,-0.021285945837277533
6.368877792,-0.047087353501766155,0.04174085350740128,-0.016579112346841562
6.378804792,-0.05600949125660717,0.041255856956846367,-0.012247081863055573
6.388730792,-0.06360078518331164,0.041056187402259865,-0.008641609652434457
6.398656792,-0.06959712996169784,0.041024542118979566,-0.006093095594805684
6.408583792,-0.07383858182186571,0.04103987348356285,-0.004865323040690483
6.418509792,-0.0762710651899539,0.04098506311709867,-0.005119969988668712
6.428436792,-0.07693861543930364,0.04075621374576752,-0.006893826150598021
6.438362792,-0.0759680064440883,0.04027266803073598,-0.01008922273000242
6.448289792,-0.07354802267341719,0.039486937711353115,-0.014477041042295724
6.458215792,-0.06990588989497018,0.03839372980169493,-0.019711786787779153
6.468142792,-0.06528368222860947,0.03703693389467835,-0.025358713870604746
6.478068792,-0.05991776238512904,0.035512894903274486,-0.03093259479567323
6.487995542,-0.054024106970449515,0.03396786012809119,-0.0359458267027547
6.497921542,-0.047791445806545166,0.03258751509330197,-0.03996075330629811
6.507847542,-0.04138261588111529,0.03157738461988971,-0.042638844713198794
6.517774542,-0.034942749871569555,0.03113480260490665,-0.043779008218957936
6.527700542,-0.02861131608223475,0.03141583999774553,-0.043339136202256115
6.537627542,-0.022534065514428006,0.03250301654608316,-0.041438234868509206
6.547553542,-0.016870941942737857,0.03438054605514216,-0.03833977519248166
6.557480542,-0.011796987682864874,0.036922676584021645,-0.034419323721060054
6.567406542,-0.0074949574300376435,0.039897964089790086,-0.030120927166526673
6.577333542,-0.00414026714954513,0.04298928741493032,-0.0259074519608613
6.587259542,-0.0018805498158063526,0.045826972037591944,-0.022210337245786898
6.597185542,-0.0008131351439966723,0.04803072032127128,-0.019384045313044326
6.607112542,-0.0009642300975621071,0.04925499469513311,-0.017669906003974657
6.617038542,-0.0022736663145088995,0.04923210016937953,-0.01717309604861014
6.626965542,-0.004588803934826185,0.047807666553614105,-0.017855222712052782
6.636891542,-0.007670291942805487,0.044964455988245756,-0.019543444763750712
6.646818542,-0.011210775646517306,0.04083188969657682,-0.021955186298094946
6.656744542,-0.014865479667292998,0.035679850942821084,-0.024735148557754036
6.666671542,-0.018291215717021775,0.029896179324667756,-0.0274988763798024
6.676597542,-0.021188302450314445,0.02394849524028005,-0.029875713466288454
6.686524542,-0.023338792707587486,0.01833328011623908,-0.03154465034488977
6.696450542,-0.024634706264077322,0.01351826827364732,-0.03225928135335865
6.706376542,-0.025091594728042888,0.00988685404611347,-0.031861576216028406
6.716303542,-0.02484524782005978,0.00769381652098554,-0.030286840638007323
6.726229542,-0.024132129570444538,0.007039523490775234,-0.027563153301639453
6.736156542,-0.02325671812482286,0.007865582156268059,-0.02380783816484042
6.746082542,-0.02255084975732836,0.009970325273449428,-0.019222003401517525
6.756009542,-0.022331114022922562,0.013039222922834368,-0.014082707582525852
6.765935542,-0.022860258324694405,0.016684046373384526,-0.008731278909521602
6.775862542,-0.024317515273026204,0.02048500520819523,-0.0035558147676380074
6.785788542,-0.026780946312485142,0.024031227343196307,0.001033816521238107
6.795714542,-0.030222754641060483,0.02695623625134207,0.004638765622253382
6.805641542,-0.034516632821793555,0.028966343527950408,0.006909756314951639
6.815567542,-0.039454846721238536,0.02986099914767171,0.007586843200353475
6.825494542,-0.044771846629161956,0.029544850189950143,0.006534038416098413
6.835420542,-0.05017071255498255,0.02803140258511751,0.003762289316419154
6.845347542,-0.055348864745753075,0.02543800342979329,-0.0005639316505712536
6.855273542,-0.06002024986882089,0.02197191700108046,-0.006137843057691118
6.865200542,-0.06393232829775254,0.017908062438487995,-0.012537215352439124
6.875126542,-0.06687725588438938,0.01356055170572256,-0.01926233513541212
6.885053542,-0.0686975079700211,0.009251878297174384,-0.025779933381203195
6.894979542,-0.06928677498838526,0.005284426610358732,-0.03156856386817276
6.904906542,-0.06858728276901441,0.0019181923139461653,-0.03616179997769728
6.914832542,-0.06658491684366376,-0.0006434779881167884,-0.039186140891811626
6.924758542,-0.0633037426668417,-0.0022605513999506208,-0.04039066980249032
6.934685542,-0.058801530992382105,-0.0028571227040622062,-0.03966575746917526
6.944611542,-0.053167502712616437,-0.0024182760274754555,-0.03704897472204769
6.954538542,-0.04652270545787393,-0.0009843231267950942,-0.03271794316540714
6.964464542,-0.039022451051234704,0.00135688886430986,-0.02697169001914605
6.974391542,-0.030859438733837494,0.004479175434074329,-0.02020359398213867
6.984317542,-0.022265895884852616,0.008228133245308137,-0.012869752506296319
6.994244542,-0.013513348499728772,0.012431180509918727,-0.005456336214893085
7.004170542,-0.0049091877315508665,0.016906157781752026,0.0015517268768288305
7.014096542,0.0032104460208748626,0.021467195440831886,0.007700126364145649
7.024023542,0.010492002282596937,0.02592726253200262,0.012593306050168285
7.033949542,0.016580773430974503,0.03009804590198028,0.01592196743371004
7.043876542,0.021142416441346956,0.033789221708528445,0.01748884558904257
7.053802542,0.02388904822373292,0.0368101605346095,0.0172293894400051
7.063729542,0.0246077042668353,0.03897683335095932,0.01522278729732525
7.073655542,0.023187502018878398,0.040124760386930365,0.01168978632586991
7.083582542,0.01964111117072157,0.04012593143470734,0.006976652274536764
7.093508542,0.014116533033130898,0.03890526961462269,0.0015277736337539255
7.103435542,0.006896603366183348,0.036451867238918065,-0.004148960488665608
7.113361542,-0.0016145162383822272,0.032822176302256874,-0.009520406252016016
7.123288542,-0.010916874940637665,0.02813538964565822,-0.014068107171803916
7.133214542,-0.020449999634668963,0.022563535671983475,-0.017329011153978925
7.143140542,-0.029634699662810467,0.016319052517873803,-0.018935250255609392
7.153067542,-0.03791769665455143,0.009640955457376733,-0.018649198087086233
7.162993542,-0.044815175142153975,0.002778717610775246,-0.01638836688743127
7.172920542,-0.04995135449278052,-0.0040275024865225025,-0.012234997025889503
7.182846542,-0.05308827669124118,-0.010570037355337222,-0.006427749947422199
7.192773542,-0.05414336044709241,-0.016697387473555078,0.0006632414827655279
7.202699542,-0.0531922331549293,-0.022333473121039168,0.008573275758926722
7.212626542,-0.050455983208336816,-0.027487338885637896,0.01678562790040772
7.222552542,-0.04627396545977313,-0.03225010047544368,0.024773900573521173
7.232478542,-0.04106525251883221,-0.03677921854667562,0.03204010110088993
7.242405542,-0.03528339691926652,-0.04127346963367825,0.038146290689753164
7.252331542,-0.029370013150602073,-0.0459439620461528,0.04273905795158397
7.262258542,-0.023712629377652856,-0.050986600081666646,0.045566861132154614
7.272184542,-0.01861136928312961,-0.05655982006640566,0.04649067704305548
7.282111542,-0.014257556595908556,-0.06276920744647256,0.04548848529501158
7.292037542,-0.010725659017255263,-0.06965878478249345,0.04265382021538358
7.301964542,-0.007978428196119198,-0.0772078427648203,0.038188049768852976
7.311890542,-0.005883759899606907,-0.0853322321778623,0.03238572303825906
7.321817542,-0.004240726886187674,-0.09388978806549433,0.025612922179910076
7.331743542,-0.0028115209322864283,-0.10269036920981302,0.018280238862756655
7.341670542,-0.0013556822181499954,-0.11151108336532539,0.010814016757150088
7.351596542,0.00033714005526844985,-0.12011623795913347,0.0036304134782179625
7.361522542,0.0024195693553884425,-0.12827967701205217,-0.0028844112914124245
7.371449542,0.00496718490460963,-0.13580535240910444,-0.008387626132647362
7.381375542,0.00796953619354378,-0.14254144987187678,-0.012589033822786875
7.391302542,0.011331865403147503,-0.1483849053717022,-0.015259643474904846
7.401228542,0.014886151927018514,-0.15327634164107412,-0.016241233166028168
7.411155542,0.018408823136646574,-0.1571889057755692,-0.015455939656519473
7.421081542,0.021642087568363895,-0.16011640796647056,-0.012913099556034644
7.431008542,0.024316235135935595,-0.16206539310198498,-0.008710857009958628
7.440934542,0.02617103926677478,-0.16305278019020292,-0.003032056846418102
7.450860542,0.026975222719915523,-0.1631074897216458,0.003863922852014325
7.460787542,0.026543442314367525,-0.16227303979725036,0.01165107347650843
7.470713542,0.024750240598527606,-0.16060887804897292,0.01994738218933591
7.480640542,0.02154025172077835,-0.15819017615743095,0.028327429952737956
7.490566583,0.01693411166043057,-0.1551074180978209,0.03633948739561261
7.500493583,0.011029981724669033,-0.15146728641782678,0.04352877301850356
7.510419583,0.004000970644706982,-0.14739509398929965,0.04946615594797508
7.520346583,-0.003911165331646557,-0.1430373786308658,0.05377933802250758
7.530272583,-0.012405816377727865,-0.13856249007125626,0.056182698308819445
7.540199583,-0.021136804651684868,-0.1341575078340653,0.05650264791225184
7.550125583,-0.029729152431592038,-0.13002120851860344,0.05469662400985633
7.560052583,-0.03779891293257104,-0.12635416683101355,0.05086458405194518
7.569978583,-0.04497501971226272,-0.12334764844356441,0.045251626725643666
7.579904583,-0.05092151354385078,-0.12117263700913572,0.03823986148137638
7.589831583,-0.05535801770040332,-0.11996977875930426,0.03032796599226112
7.599757583,-0.05807619242458295,-0.11984084520733736,0.022098507556976777
7.609684583,-0.05895044258066231,-0.1208423957891576,0.014175545713411588
7.619610583,-0.05794221030084951,-0.12298216231232272,0.0071769768489324814
7.629537583,-0.05509815493454166,-0.1262181377053816,0.001666276346111098
7.639463583,-0.05054313952774934,-0.13045971960777417,-0.0018932575502073822
7.649390583,-0.044469386312848025,-0.13556985135535457,-0.0031803793477749908
7.659316583,-0.03712350599660131,-0.1413672089142882,-0.0020526162836595617
7.669243583,-0.028793198704148242,-0.1476283661997311,0.0014253274110916734
7.679169583,-0.019795140894758468,-0.15409132960988176,0.006967207264347445
7.689095583,-0.010464825792649107,-0.1604629278869504,0.014071903572388146
7.699022583,-0.0011479654335310606,-0.16643222789003756,0.022056563605830252
7.708948583,0.007808086160015789,-0.17169024571261357,0.03011715773829698
7.718875583,0.0160649828363848,-0.1759537246834159,0.03741131079958738
7.728801583,0.023307922246456007,-0.17898913096984104,0.04315294851170781
7.738728583,0.029264889517875835,-0.18063314840432035,0.046705593932269474
7.748654583,0.033729875560419675,-0.18080745599416337,0.047661465752458575
7.758581583,0.03658746230475923,-0.17952715824963475,0.04589592810500784
7.768507583,0.03783460644218531,-0.17690285876580789,0.041589979294427336
7.778434583,0.03759488184466344,-0.17313606547796995,0.03521660707852171
7.788360583,0.036120947423346095,-0.1685072711470181,0.027490260069647613
7.798286583,0.03378224532831476,-0.16335646316851216,0.01928313425351077
7.808213583,0.031036722357003825,-0.1580571508135815,0.011517511625957369
7.818139583,0.02838770242430886,-0.15298679073790822,0.005048783873540848
7.828066583,0.0263297089415388,-0.14849782405293024,0.0005570818354073375
7.837992583,0.025289560948506824,-0.14489347248596526,-0.0015350051816571356
7.847919583,0.02557087812483067,-0.14241075363022054,-0.0011057471487041493
7.857845583,0.027310682077342986,-0.14121068242706386,0.001666534392889108
7.867772583,0.030455710188479514,-0.14137358594881755,0.00634510326558402
7.877698583,0.03476343961154192,-0.14289673802442363,0.012307364733756928
7.887625583,0.03982917631584161,-0.14569237268122956,0.018835175336842844
7.897551583,0.045136514569385965,-0.14958626406448391,0.025209669504018834
7.907478583,0.05012451411877742,-0.15431945875416014,0.030799138485884916
7.917404583,0.05426171844885752,-0.15955693795180134,0.03513071848558971
7.927330583,0.05711558189658339,-0.1649061199553076,0.03793869508463199
7.937257583,0.058406636689562204,-0.16994572798502824,0.03918437338454324
7.947183583,0.058039541091359316,-0.17426289603609532,0.0390453247307188
7.957110583,0.05610706732748599,-0.17749425960204865,0.03787565860132293
7.967036583,0.05286727178003985,-0.17936540973776818,0.03614325244100336
7.976963583,0.048698053576431526,-0.17972276160223238,0.03435349097520313
7.986889583,0.04403664029849597,-0.17855293155470073,0.03297097711148909
7.996816583,0.03931377878505002,-0.1759869600969218,0.032350512255964414
8.006742583,0.034893206788490096,-0.1722894365019265,0.0326867686232669
8.016669583,0.031026174460940362,-0.167834914592214,0.03398904768243058
8.026595583,0.027828353977729828,-0.16307524949974317,0.036083670456063234
8.036522583,0.025282714634247576,-0.15850137514379728,0.03864219892343562
8.046448583,0.02326761848552008,-0.1546021802218008,0.0412294970385708
8.056374583,0.02160537987545359,-0.15182268766396181,0.04336254733910174
8.066301583,0.020123287373186062,-0.15052426813786143,0.04456996651774071
8.076227583,0.01871681540200336,-0.15095051758877884,0.044444009639759315
8.086154583,0.017403859507969358,-0.15320277716308922,0.042680994488212096
8.096080583,0.016359703446025994,-0.1572287844432838,0.03911026526844078
8.106007583,0.01592497340356059,-0.16282667643092474,0.0337133990356645
8.115933583,0.016582649244338273,-0.16966434631100766,0.026633695482194682
8.125860583,0.018904957693328676,-0.1773111883667357,0.018173187090592374
8.135786583,0.023476165934279748,-0.18527689867083671,0.008773385234081296
8.145713583,0.030801834827685625,-0.19305178572455053,-0.0010219175909677587
8.155639583,0.04121774037418103,-0.20014496067391846,-0.010619062152338281
8.165565583,0.054811955691390316,-0.20611918826302772,-0.01943476610942644
8.175492583,0.07137188931552628,-0.21062252222005548,-0.026954026604394464
8.185418583,0.09036492775303083,-0.21341663571647437,-0.03277588702694266
8.195345583,0.11095707052130273,-0.21440026032465306,-0.036640619344451904
8.205271583,0.13206902903136314,-0.21362412953150242,-0.03843669963150586
8.215198583,0.1524643570580634,-0.21129264008560802,-0.03819043955284324
8.225124583,0.17085991834225064,-0.2077484288240465,-0.036044052970925174
8.235051583,0.1860459160890245,-0.20343932284373098,-0.03222883861451246
8.244977583,0.1970013784917595,-0.1988712877190275,-0.02703914629177253
8.254904583,0.20299179398481465,-0.19455430945981222,-0.020810458671897732
8.264830583,0.20363833361741812,-0.1909494800468053,-0.0139023376310741
8.274757583,0.198952084834142,-0.18842457761630985,-0.006685217217336194
8.284683583,0.18933114390089723,-0.1872225198953555,0.00047058761401830366
8.294609583,0.17552258532595386,-0.1874434245494097,0.007205219255693548
8.304536583,0.15855469966636931,-0.18903831220793366,0.013180366430332305
8.314462583,0.1396471571467543,-0.19181191627515393,0.018092312057705576
8.324389583,0.12010788639025433,-0.19543343066576033,0.0216875201120336
8.334315583,0.10122565452133356,-0.1994558118211106,0.023780055235360094
8.344242583,0.08416705843016457,-0.20334475352800382,0.024268545204576268
8.354168583,0.06988638412512588,-0.20651717854750196,0.023149282338259886
8.364095583,0.059056420576683935,-0.2083869015243794,0.020522121341658126
8.374021583,0.05202697844102241,-0.208413174994609,0.016587314619931015
8.383948583,0.04881503015920004,-0.20614684788986162,0.0116337610174146
8.393874583,0.04912653180372898,-0.20126908563960888,0.0060209472802814894
8.403801583,0.05240607859181603,-0.19361883004756023,0.00015691223756766066
8.413727583,0.0579073407106178,-0.18320688106206334,-0.005526897580912088
8.423654583,0.06477516297027479,-0.170216055424578,-0.010604325176247561
8.433580583,0.07212956252340946,-0.15498785845633206,-0.014686883827483664
8.443506583,0.07914271261530587,-0.13799646652596617,-0.017458066195068272
8.453433583,0.08510213791303581,-0.11981111566049164,-0.01870572006104957
8.463359583,0.08945623905171152,-0.10104884540075135,-0.018347766891773202
8.473286583,0.09184118887977157,-0.0823209990716837,-0.0164475152312179
8.483212583,0.09209042047230286,-0.06417845093872818,-0.01321698559655457
8.493138958,0.09022880153364747,-0.047061567956453144,-0.009008536936449056
8.503064958,0.08645325865086857,-0.03126086531795744,-0.004295409573039935
8.512991958,0.08110103203074401,-0.016893170650538726,0.00035952810346683034
8.522917958,0.07460721255834415,-0.0038966548447753754,0.00434924034267815
8.532844958,0.06745518658368521,0.007952957332870892,0.007084562085712358
8.542770958,0.06012595470045849,0.019004043217060434,0.00807175077013011
8.552697958,0.053053209574385536,0.02967131627447912,0.006997740378906756
8.562623958,0.04658981500384783,0.040368033066692635,0.0038072417681624614
8.572549958,0.040988742837212155,0.05144434884639646,-0.0012502147829612708
8.582476958,0.03639887124378204,0.06314951853592393,-0.007625411913168429
8.592402958,0.0328738278313661,0.0756285693453675,-0.014540074769679806
8.602329958,0.030390087006050143,0.08895054217788895,-0.021118397231030286
8.612255958,0.028869004510075017,0.10315201267976531,-0.026552922551257883
8.622182958,0.028197365599674364,0.11827314131649216,-0.03026174461462486
8.632108958,0.0282430451471007,0.13436708999672187,-0.031991985905447655
8.642035958,0.028865840898277415,0.15147571530470932,-0.031839860668136086
