Time (s),Acceleration x (m/s^2),Acceleration y (m/s^2),Acceleration z (m/s^2)
10.00370237,0.8117650747,-11.24207878,2.325823545
10.00847945,0.3864408433,-11.39701462,1.991426587
10.01324326,0.0466600433,-11.57109165,1.518844128
10.01803362,-0.2327020019,-11.79781246,0.8578268886
10.0228107,-0.3738785386,-11.99522018,0.2111666054
10.02757445,-0.4522434771,-12.1734848,-0.3020938635
10.03236487,-0.5102694035,-12.39063358,-0.613160789
10.03714195,-0.5204389095,-12.58804131,-0.7956135273
10.0419057,-0.4725824594,-12.83809185,-0.9056833982
10.04669612,-0.2907279432,-13.07857037,-0.7962117195
10.0514732,0.08255238086,-13.42014599,-0.6203392744
10.05623695,0.5982056856,-13.74616814,-0.5030909777
10.06102737,1.106680512,-13.91845131,-0.6448656917
10.06580445,1.728814363,-14.03749371,-0.9595218897
10.0705682,2.459821701,-14.08834171,-1.232303619
10.07535857,3.138785124,-14.05304718,-1.442273855
10.08013565,3.684348583,-13.94537067,-1.565504193
10.08489945,4.079762459,-13.81914902,-1.533799291
10.08968982,4.269991875,-13.65524101,-1.386042476
10.0944669,4.446462631,-13.46261883,-1.189831018
10.0992307,4.741377831,-13.26341629,-1.076770186
10.10402107,4.873581409,-13.1138649,-1.158724308
10.10879815,4.79521656,-12.94038486,-1.466202021
10.11357523,4.397409916,-12.71486092,-1.871785522
10.11835232,3.538386583,-12.36550903,-2.093121529
10.1231294,2.18105793,-11.80499077,-2.005185366
10.12789315,1.115055323,-11.30668545,-1.822134495
10.13268357,0.4061816335,-10.87956619,-1.540977836
10.13746065,0.01794617064,-10.4668045,-1.020538807
10.1422244,-0.08913264424,-10.02413273,-0.4492524564
10.14701482,-0.4869394004,-9.629914284,0.05204389244
10.1517919,-1.250848055,-9.337990761,0.5449653864
10.15655565,-1.81495595,-9.156734467,1.061216831
10.16134607,-2.197209358,-9.056833267,1.572084427
10.16612315,-2.502892494,-9.110671997,2.072782516
10.1708869,-2.51844573,-9.515657425,2.519043922
10.17567727,-2.271386862,-10.09830952,2.906681299
10.18045435,-2.291127682,-10.71506023,3.200400352
10.18521815,-2.740978241,-11.23669529,3.294318676
10.19000852,-3.59641242,-11.76850033,3.135794163
10.1947856,-4.37348175,-12.19382381,2.703291416
10.1995494,-5.09013176,-12.52822113,1.982453585
10.20433976,-5.499304771,-12.76451206,1.116850019
10.20911685,-5.675177097,-12.82253838,0.3254238665
10.21388065,-5.709873199,-12.86022568,-0.6580262184
10.21867102,-5.607579708,-12.76810169,-1.81495595
10.2234481,-5.568696499,-12.64726448,-2.395813704
10.22821185,-5.495715618,-12.61316681,-2.857030153
10.23300227,-5.581857204,-12.37747288,-2.847458839
10.23777935,-5.76072073,-12.22852039,-2.458027124
10.2425431,-5.729015827,-12.07478142,-1.858026743
10.24733352,-5.384449005,-11.77508068,-1.356730461
10.2521106,-4.84905529,-11.4077816,-1.570888042
10.25688768,-4.304089546,-11.17567825,-1.72223413
10.26166476,-3.652045488,-11.11585712,-1.711466432
10.26644185,-2.796013355,-11.12841988,-1.831107497
10.2712056,-2.183450699,-11.05424213,-1.901097536
10.27599602,-1.52542448,-10.92742252,-1.679163337
10.2807731,-0.5270192027,-10.66540909,-0.8685946465
10.28553685,0.6478567123,-10.36451149,0.08015955985
10.29032726,1.159322619,-10.46441174,0.456430912
10.29510435,1.122233868,-10.56132126,1.335195065
10.2998681,0.7992027402,-10.51884842,2.152343988
10.30465852,0.3774677813,-10.31785107,2.634497643
10.3094356,0.1339980662,-9.918250084,2.702693224
10.31419935,0.1244267747,-9.591031075,2.827120066
10.31898971,0.2039881349,-9.278169632,2.840878725
10.3237668,0.5694918036,-9.021539688,2.776272535
10.3285306,1.28614223,-8.788239479,2.671586514
10.33332096,2.197209358,-8.55493927,2.388635159
10.33809805,2.836092949,-8.350951195,1.861616015
10.34286185,3.182454109,-8.142775536,1.097109199
10.34765221,3.220739365,-7.761718273,0.5012963414
10.3524293,3.781856298,-7.803592682,0.4743770957
10.3571931,4.776073933,-8.528617859,0.8536394835
10.36198346,4.876572609,-9.082556725,-0.1585244983
10.36676055,3.326621771,-8.819944382,-1.418345571
10.37152435,0.9457631707,-8.117650986,-2.188236237
10.37631471,-0.9840483069,-7.274180889,-2.145165443
10.3810918,-2.139183521,-6.342774391,-1.53080833
10.3858556,-2.574677229,-5.351547718,-0.6699903607
10.39064596,-2.535195589,-4.354339123,0.06819544733
10.39542305,-2.397010088,-3.463610888,0.6424728632
10.4001868,-2.420340061,-2.706880569,1.083948612
10.40497721,-2.581855536,-2.042872429,1.47756803
10.4097543,-2.734398127,-1.527817249,1.732403636
10.41451805,-2.867797852,-1.157527924,1.895713687
10.41930846,-2.973082066,-0.9116654396,1.953739643
10.42408555,-3.102294445,-0.7962117195,1.892124534
10.4288493,-3.126821041,-0.7674978375,1.767697692
10.43363971,-2.932404041,-0.8919246197,1.670788407
10.4384168,-2.745764017,-1.118644595,1.616949916
10.44318055,-2.612364054,-1.344766378,1.515853167
10.44797096,-2.274377823,-1.569691658,1.466202021
10.45274805,-1.821536183,-1.8628124,1.497906923
10.45752513,-1.548754454,-2.170888424,1.51106751
10.46230221,-1.339382529,-2.492722988,1.399801254
10.4670793,-1.1395818,-2.757129908,1.231107235
10.47185638,-1.049850941,-2.944368362,1.048056364
10.47663346,-1.165902853,-3.007179976,0.7220342159
10.48141055,-1.343569875,-3.06999135,0.3397808075
10.48618763,-1.459023595,-3.253640652,0.1052841991
10.49096471,-1.501496196,-3.542573929,-0.05264209956
10.4957418,-1.829911113,-3.972085476,-0.24765715
10.50050555,-2.158325911,-4.565505505,-0.5718846321
10.50529596,-2.35812664,-5.288137913,-0.9780662656
10.51007305,-2.505285263,-6.131608009,-1.346560955
10.5148368,-2.403590441,-7.085147858,-1.562513232
10.51962721,-2.010569334,-8.346165657,-1.789233088
10.5244043,-1.122233868,-10.06899738,-2.157129526
10.52916805,-0.02811566554,-12.1034956,-3.241078377
10.53395846,1.174875975,-14.67757416,-5.505885124
10.53873555,2.626122952,-17.87618065,-8.688339233
10.5434993,4.435096741,-21.9356041,-13.11446285
10.54828971,5.719444275,-27.87339211,-22.52782631
10.55306674,9.31525898,-37.08097458,-34.63371658
10.55783055,16.11805344,-43.93401718,-35.29353714
10.56262096,17.40120506,-43.96811676,-27.74118996
10.56739799,11.2755785,-38.80260849,-19.15633965
10.5721618,4.436293125,-30.60778999,-12.81595802
10.57695216,1.837089539,-23.62074852,-9.40977478
10.58172924,2.230708838,-18.44626999,-7.634898663
10.58649305,2.783450842,-14.47597885,-6.1429739
10.59128341,3.017947674,-11.31027412,-5.028516769
10.59606049,3.251846075,-8.813961983,-4.320839405
10.6008243,3.087937593,-6.762714863,-3.573082447
10.60561466,2.559721947,-4.938187599,-2.635694027
10.61039174,1.937588096,-3.293122053,-1.549352646
10.61515555,1.11984098,-1.642672777,-0.5958128572
10.61994591,0.07238288224,-0.03649054468,0.1908276081
10.62472299,-0.8566305041,1.227517962,1.413560033
10.6294868,-1.548754454,2.164906263,3.077169895
10.63427716,-1.953141451,2.533999205,4.887938499
10.63905424,-2.577069998,2.136790514,5.294718266
10.64381805,-2.974876642,1.279561877,4.366901398
10.64860841,-3.050250769,0.1812563092,3.12921381
10.65338549,-2.32701993,-1.28614223,2.373680115
10.6581493,-1.104885817,-2.930609465,2.171486616
10.66293966,-0.2662015259,-4.528416634,2.259422779
10.66771674,0.06340979785,-6.093322754,2.498705149
10.67248055,0.04725824669,-7.756334782,2.835494757
10.67727091,-0.1489532143,-9.582057953,3.227319479
10.68204799,-0.3750749528,-11.61117172,3.287140131
10.6868118,-0.8093722463,-14.10808277,3.343969584
10.69160216,-1.258026481,-17.15893173,3.837489367
10.69637924,-1.706680775,-19.79522324,4.470989227
10.70114305,-2.544766903,-21.25723839,3.607180119
10.70593341,-2.37786746,-22.64148521,-2.506481647
10.71071049,0.2321037948,-24.28714943,-13.12941742
10.7154743,0.8590233326,-24.17289162,-17.93659782
10.72026466,-1.040877819,-22.42015076,-15.72981739
10.72504174,-3.117847919,-19.96032906,-10.83589745
10.72980555,-4.226323128,-17.12303925,-6.181857109
10.73459591,-3.943969965,-14.05065441,-2.043470621
10.73937299,-2.985644341,-11.11107159,0.708275497
10.7441368,-2.697309256,-8.758927345,1.636690736
10.74892716,-2.78883481,-7.207779884,1.47756803
10.75370424,-3.26141715,-6.28355217,0.912861824
10.75846805,-3.859622955,-5.721837044,0.6711867452
10.76325841,-4.506881237,-5.274977684,0.8368897438
10.76803549,-4.944767952,-4.92442894,0.9738788009
10.7727993,-5.073980331,-4.737190723,0.955334425
10.77758966,-5.113461971,-4.621737003,0.7387840152
10.7823668,-4.915455818,-4.688137531,0.4935196638
10.78713055,-4.573880672,-4.889732838,0.2135594189
10.79192096,-4.269393921,-5.206781864,0.07298108935
10.79669799,-3.934398651,-5.682953835,0.1052841991
10.80147513,-3.598805189,-6.250650883,0.2763710022
10.80625216,-3.095116138,-6.90030241,0.5766702294
10.8110293,-2.558525562,-7.554141045,0.8524430394
10.81579305,-2.031506538,-8.184051514,1.162911773
10.82058346,-1.54217422,-8.804390907,1.467398524
10.82536055,-1.33399868,-9.309874535,1.721037745
10.8301243,-1.159920812,-9.728618622,2.017747641
10.83491471,-1.085743308,-10.07139015,2.334796667
10.8396918,-1.182652593,-10.29811001,2.690130949
10.84445555,-1.336989641,-10.3848505,3.06999135
10.84924596,-1.524227977,-10.43868923,3.474378586
10.85402305,-1.655235052,-10.38126087,3.892524242
10.8587868,-1.668395638,-10.21316528,4.199403763
10.86357721,-1.587637782,-10.05404282,4.256831646
10.8683543,-1.441675663,-9.841081619,4.121636868
10.87313138,-1.158126116,-9.676574707,3.884747505
10.87790846,-0.8500502706,-9.574879646,3.844667673
10.88268555,-0.7884350419,-9.531210899,3.786641836
10.88746263,-0.8632107973,-9.541379929,3.950550079
10.89223971,-0.7238288522,-9.637093544,4.146163464
10.8970168,-0.3457628787,-9.742377281,4.399204254
10.90178055,0.2051845491,-9.875777245,4.252045631
10.90657096,0.9451649189,-10.0331049,3.73998189
10.91134805,1.717448473,-10.23828983,3.059223652
10.9161118,2.360519648,-10.46740246,2.365305185
10.92090221,2.822932482,-10.64387321,1.618744493
10.9256793,3.090330362,-10.77787113,0.9314061999
10.93044305,3.190829039,-10.90229797,0.2063809484
10.93523346,3.058027267,-10.96510983,-0.5611169338
10.94001055,2.744567633,-10.90289593,-1.298106313
10.9447743,2.330609322,-10.71565819,-1.915454507
10.94956471,1.77009058,-10.4668045,-2.498705149
10.9543418,1.127019525,-10.21256733,-3.147758245
10.9591056,0.5958128572,-10.02592659,-3.658625841
10.96389596,0.1369891018,-9.814162254,-3.829114437
10.96867305,-0.2440679073,-9.594022751,-3.76510644
10.97343685,-0.6239284873,-9.300901413,-3.580859184
10.97822721,-1.124028444,-8.998807907,-3.477369547
10.9830043,-1.742573142,-8.744570732,-3.393022537
10.9877681,-2.140379906,-8.697910309,-3.021536827
10.99255846,-2.269592285,-8.650053978,-2.257628202
10.99733555,-2.11585331,-8.510671616,-1.178465128
11.00209935,-1.810768485,-8.236095428,-0.09092725813
11.00688971,-1.220937729,-8.051848412,0.6538388133
11.0116668,-0.7806583643,-7.921439171,1.204187989
11.0164306,-0.6059823632,-7.882555962,1.677966833
11.02122096,-0.5700899959,-7.858627796,2.152942181
11.0259981,-0.5910272002,-7.747959614,2.685345173
11.03076185,-0.6149554253,-7.651050568,2.7577281
11.03555221,-0.1980060786,-7.625925541,2.525026083
11.04032935,0.1627119333,-7.576872826,2.408375978
11.04510643,0.2602194548,-7.547560692,2.013560295
11.04988352,-0.0239282269,-7.591229916,1.377069473
11.0546606,-0.3092723191,-7.462017536,0.6442674994
11.05943768,-0.4474578202,-7.158727169,0.01615155302
11.06421477,-0.5922235847,-6.787839413,-0.8709874153
11.06899185,-0.7100701332,-6.584449768,-2.094317913
11.0737556,-0.6975077987,-6.690331936,-3.250649452
11.07854602,-0.313459754,-7.295716286,-3.862015724
11.0833231,0.171086818,-8.128418922,-4.338785648
11.08808685,0.513858676,-8.888737679,-4.753342152
11.09287726,0.9098708034,-9.474979401,-4.903491974
11.09765435,1.316650629,-9.931410789,-4.747360229
11.1024181,1.653440475,-10.22034359,-4.29750967
11.10720852,1.900499344,-10.36451149,-3.660420418
11.1119856,2.023729801,-10.4033947,-2.960519791
11.11674935,2.150549412,-10.35972595,-2.350948334
11.12153977,2.277369022,-10.37408257,-1.834098577
11.12631685,2.404188633,-10.41715336,-1.3310076
11.13108065,2.460419893,-10.52363396,-0.7357929349
11.13587102,2.411965132,-10.73061275,-0.2123630047
11.1406481,2.239681959,-11.0685997,0.1728814393
11.1454119,2.038086653,-11.47418308,0.409172684
11.15020226,1.840678811,-11.86481094,0.6167500615
11.15497935,1.690529227,-12.18305683,0.7615157962
11.15974315,1.520638824,-12.37687492,0.926620543
11.16453352,1.402792215,-12.35773277,1.152742267
11.1693106,1.222732425,-12.15553856,1.398006678
11.1740744,0.9720842242,-12.02154064,1.672582984
11.17886482,0.8021938205,-11.93061352,1.908276081
11.1836419,0.6556333899,-11.92104244,2.063211441
11.18840565,0.5282155871,-11.99402332,2.227119684
11.19319607,0.3864408433,-12.07597733,2.400599241
11.19797315,0.1836491376,-12.13938713,2.583650351
11.2027369,-0.1298106313,-12.15434265,2.671586514
11.20752732,-0.3822534084,-12.13101292,2.596212626
11.2123044,-0.484546572,-12.08794212,2.251646042
11.21708148,-0.4121637046,-12.09212875,1.593619823
11.22185857,-0.1417747438,-12.05264759,0.7806583643
11.22663565,0.24765715,-12.04666519,-0.0652044192
11.2313994,0.6574280262,-12.078969,-0.8069794178
11.23618982,1.006181955,-12.1980114,-1.442273855
11.2409669,1.470389485,-12.45763302,-1.871187329
11.2457307,1.808973908,-12.69751358,-1.963909149
11.25052107,1.93340075,-12.89432335,-1.931007862
11.25529815,1.992024899,-13.11087322,-1.797009826
11.26007523,1.946561217,-13.34237862,-1.561316729
11.26485232,1.972284079,-13.6031971,-1.398006678
11.2696294,2.091925144,-13.82931805,-1.384247899
11.27440648,2.381456852,-14.01117325,-1.500898004
11.27918357,2.713460922,-14.05843163,-1.742573142
11.2839607,3.055036306,-13.98544979,-1.945364833
11.28872445,3.372085333,-13.80180073,-2.033899307
11.29351482,3.595814228,-13.54576874,-1.886142492
11.29829195,3.902095556,-13.35733414,-1.56191504
11.3030557,4.231706619,-13.17308712,-1.217946768
11.30784612,4.546362877,-12.8691988,-0.9272187948
11.3126232,4.664209366,-12.57069397,-0.9086744189
11.31738695,4.710271358,-12.29611778,-1.03848505
11.32217737,4.588835716,-12.06939697,-1.316650629
11.32695445,4.168296814,-11.7086792,-1.521237016
11.3317182,3.333800077,-11.20558834,-1.536790371
11.33650862,2.391027927,-10.74497032,-1.35912323
11.3412857,1.549352646,-10.29930687,-1.037886858
11.3460495,0.7806583643,-9.934999466,-0.5832505226
11.35083987,0.2500499785,-9.743574142,-0.04307080805
11.35561695,-0.1172483116,-9.474979401,0.7357929349
11.36038076,-0.1166501045,-9.215956688,1.700100541
11.36517112,-0.1034895778,-9.090931892,2.376671076
11.3699482,-0.2566302419,-9.211769104,2.982055187
11.37471201,-0.2626122832,-9.631111145,3.323630571
11.37950237,-0.3589234054,-10.22393322,3.549752474
11.3842795,-0.7932206988,-10.82213879,3.826123476
11.38904326,-1.718046665,-11.46580791,3.960719585
11.39383367,-2.882753134,-12.07537937,3.827918053
11.39861076,-3.99601388,-12.6370945,3.503690481
11.4033745,-4.972883701,-13.1204443,2.980858803
11.40816492,-5.976672649,-13.58046532,1.935195327
11.41294201,-6.702296257,-13.86580944,0.6436693072
11.41770576,-7.118049145,-14.05424404,-0.5347958803
11.42249617,-7.189833641,-14.12602806,-1.460818172
11.42727326,-6.795018196,-14.03809261,-2.182254314
11.43203706,-6.570092678,-13.78206062,-2.582453728
11.43682742,-6.373282909,-13.43988705,-2.919243574
11.4416045,-6.31226635,-13.2705946,-2.924627542
11.44636831,-6.243472576,-13.06840134,-2.42572403
11.45115867,-5.613562107,-12.65264797,-2.006979942
11.45593576,-5.048855782,-12.01017475,-1.895115495
11.46071284,-4.461417675,-11.54656601,-1.999203324
11.46548997,-3.94815731,-11.1505537,-1.97826612
11.47026706,-3.278765202,-10.96989536,-2.005783558
11.47503081,-2.389831543,-10.81854916,-2.068595171
11.47982122,-1.871785522,-10.62473106,-2.051845312
11.48459831,-1.27477622,-10.43091202,-1.642672777
11.48936206,-0.404387027,-10.27537823,-0.8458628058
11.49415247,0.8614161611,-10.20538902,0.0933200866
11.49892956,1.168893814,-10.13719273,0.6191428304
11.50369331,0.9541380405,-10.22453117,1.253839016
11.50848372,0.5712863803,-10.4093771,2.307279348
11.51326081,-0.05144568533,-10.36271667,3.265604734
11.51802461,-0.2667997181,-10.1904335,3.904488325
11.52281497,-0.1483550072,-9.847661972,3.966103554
11.52759206,0.2380858511,-9.408578873,3.632902861
11.53235586,1.090528965,-9.040083885,3.138186932
11.53714622,2.084148407,-8.690134048,2.470589399
11.54192336,2.868396044,-8.240283012,1.731805444
11.54668711,3.344567776,-7.882555962,1.287936807
11.55147753,4.180859566,-8.092526436,1.734796405
11.55625461,5.120640278,-8.870791435,1.754537225
11.56101836,5.458028316,-9.519247055,0.5533402562
11.56580878,4.712664127,-9.70827961,-0.7908278704
11.57058586,2.68713975,-9.327820778,-1.966302037
11.57534961,0.5120640397,-8.595617294,-2.54117775
11.58014002,-1.007976532,-7.751548767,-2.43708992
11.58491711,-1.974078655,-6.766304016,-1.982453585
11.58968091,-2.39222455,-5.654838085,-1.29451704
11.59447128,-2.581257343,-4.547559261,-0.5748756528
11.59924836,-2.733201742,-3.536591768,-0.01256231871
11.60401216,-2.804388046,-2.669193745,0.500099957
11.60880258,-2.880958557,-1.942373753,0.9469595551
11.61357966,-2.970689297,-1.359721422,1.325623751
11.61834341,-2.955734253,-0.9499505758,1.661217093
11.62313383,-3.027518749,-0.5700899959,1.800599098
11.62791091,-3.023331404,-0.2907279432,1.809572101
11.63267466,-3.03888464,-0.1459621787,1.709073544
11.63746508,-2.857628345,-0.1363908947,1.669592023
11.64224216,-2.644068956,-0.2416750938,1.553540111
11.64700596,-2.563909531,-0.3565305769,1.39022994
11.65179633,-2.254637241,-0.5868397355,1.359721422
11.65657341,-1.782652855,-0.8267202377,1.42971158
11.66135049,-1.38185513,-1.024128079,1.456630826
11.66612763,-1.396211982,-1.221535921,1.341775298
11.67090471,-1.362712502,-1.432702541,1.188036442
11.6756818,-1.291526079,-1.630110383,1.110867858
11.68045888,-1.315454245,-1.81794703,0.9672985673
11.68523596,-1.387238979,-2.044667006,0.8183453679
11.69001305,-1.344168067,-2.309672117,0.6747759581
11.69479013,-1.515254974,-2.569891453,0.5413761139
11.69956721,-1.772483349,-2.970091105,0.4133601189
11.70433102,-2.023131609,-3.452843189,0.3146561682
11.70912138,-2.402992249,-4.074976921,0.1393819153
11.71389846,-2.748156786,-4.841876507,0.05084748194
11.71866226,-2.846262455,-5.704489231,-0.1782652885
11.72345263,-2.730808735,-6.778268337,-0.5335994363
11.72822976,-2.106282234,-8.236095428,-1.020538807
11.73299352,-1.022333503,-10.03071213,-2.099701881
11.73778393,0.35174492,-12.3679018,-4.222135544
11.74256102,2.087737799,-15.25244999,-7.526025295
11.74732476,4.237689018,-19.13360786,-11.27737331
11.75211518,6.380461693,-24.60778809,-18.61316872
11.75689227,8.681160927,-33.98047256,-32.53999329
11.76165607,16.050457,-44.8391037,-38.25764465
11.76644643,17.92702675,-49.32205582,-32.49572754
11.77122352,10.51107121,-46.25146866,-23.63390923
11.77598732,2.753540754,-36.67120361,-15.8931284
11.78077768,0.524028182,-27.48156738,-11.50229836
11.78555482,1.135992527,-20.8953228,-8.985049248
11.79031857,2.038086653,-16.02832222,-6.732804775
11.79510898,2.325823545,-12.06820107,-5.024329185
11.79988607,2.160718918,-8.933005333,-3.854837179
11.80464982,1.816152334,-6.361319065,-2.851646423
11.80944023,1.272981644,-4.171288013,-1.794616938
11.81421732,0.6209374666,-2.309073925,-0.8853443861
11.81898112,0.08673982322,-0.8261220455,-0.2650051117
11.82377148,-0.6293123364,0.2650051117,0.6646065116
11.82854857,-1.642074585,1.109671474,2.008176327
11.83331237,-2.362912416,1.33399868,4.051048756
11.83810279,-3.337389469,0.8344969153,4.757529736
11.84287987,-4.094119549,-0.2362912297,4.219742775
11.84764362,-3.970889091,-1.864008784,3.15433836
11.85243404,-2.516651154,-4.090530396,2.529811859
11.85721112,-1.159920812,-6.404389858,2.212762833
11.86197492,-0.328414917,-8.603992462,1.662413478
11.86676529,0.05084748194,-10.92981529,0.9906286001
11.87154237,0.1740778536,-13.57448292,0.2667997181
11.87630617,0.6909275651,-16.61755562,-0.1363908947
11.88109654,1.977667928,-19.85683823,0.07956135273
11.88587367,3.296711445,-22.81676102,0.2907279432
11.89063742,3.177070379,-24.60898399,-0.8015955687
11.89542784,1.438684583,-24.08675003,-3.062813044
