Time (s),Acceleration x (m/s^2),Acceleration y (m/s^2),Acceleration z (m/s^2)
9.001921882,3.243396161410838,-1.4211244360863813,-1.124888618608479
9.006697767,3.644878583631797,-2.0608335462995266,-1.024074930524381
9.011460319,4.035942926248196,-2.692124354173097,-0.9218801833391905
9.016249486,4.415413597050545,-3.312054568732452,-0.819246955446305
9.021025372,4.782160262357409,-3.9177432349576007,-0.7171085407447136
9.025787976,5.135103481844047,-4.506392154084,-0.6163807567829221
9.030577142,5.473220229474637,-5.075306693357133,-0.5179539772457262
9.035353028,5.795549276020742,-5.621915783811108,-0.42268546248363265
9.04011558,6.1011964071993,-6.143790910516333,-0.3313920584082781
9.044904799,6.389339449666727,-6.638663908007356,-0.24484333045149045
9.049680684,6.659233074874029,-7.104443384571166,-0.1637551955749589
9.054443236,6.910213348072282,-7.539229613007293,-0.08878411165722801
9.059232455,7.141701986614192,-7.941327742496822,-0.020521880002052954
9.06400834,7.353210288320468,-8.309259206284885,0.040508886943025
9.068770892,7.544342687388234,-8.641771222688815,0.09385858466739377
9.073560059,7.71479989252308,-8.937844311870306,0.13915367962000988
9.078335944,7.864381560098586,-9.196697776897032,0.17609898015995235
9.083098549,7.992988454473709,-9.417793123696983,0.204479088437505
9.087887715,8.100624048174856,-9.60083541944972,0.22415901739235203
9.092663601,8.187395516340885,-9.745772611943307,0.23508396993826045
9.097426153,8.253514082474831,-9.852792853078208,0.23727829129124606
9.102215372,8.29929467604917,-9.922319888041413,0.23084361960987657
9.106991257,8.325154866841496,-9.955006587958023,0.21595627408528806
9.111753809,8.331613046071126,-9.951726718359309,0.19286393291006207
9.116542976,8.319285830590722,-9.91356504882689,0.1618816658260576
9.121318861,8.288884673787349,-9.841805920823496,0.12338739674870235
9.126081465,8.241211675754798,-9.737920401075169,0.07781688049684189
9.130870632,8.177154595941564,-9.603552156985913,0.025658282959663947
9.135646517,8.097681083821655,-9.44050219851034,-0.032553544430562624
9.140409069,8.003832156752653,-9.250712637724323,-0.09624300699062162
9.145198288,7.896714968345984,-9.03624962297925,-0.16479984145886642
9.149974174,7.777494924564379,-8.799285608872367,-0.23758524489121968
9.154736726,7.647387217668583,-8.54208112615522,-0.31393798685430735
9.159525944,7.5076478595114535,-8.266966217029289,-0.3931804417856784
9.164301778,7.359564305129295,-7.976321701036673,-0.4746244864677365
9.169064382,7.204445764855318,-7.6725604350279575,-0.5575772157050974
9.173853549,7.043613308175715,-7.3581087276080765,-0.6413464373034532
9.178629434,6.878389865309762,-7.035388064137681,-0.7252459151065905
9.183392038,6.710090233170034,-6.706797292856138,-0.8086003359341191
9.188181205,6.54001119112614,-6.374695415981956,-0.8907499825728767
9.19295709,6.369421829007362,-6.0413851216938586,-0.9710551003546541
9.197719642,6.199554185152961,-5.70909718366357,-1.04889994920082
9.202508861,6.0315942861846175,-5.379975844297677,-1.1236965362798048
9.207284694,5.866673672736076,-5.056065286103963,-1.1948880266196487
9.212047299,5.7058614869137125,-4.73929728275079,-1.26195183026269
9.216836465,5.550157188094141,-4.431480107636223,-1.3244023651024597
9.221612351,5.400483954090508,-4.134288763401588,-1.381793494791511
9.226374955,5.257682815016943,-3.8492565811404327,-1.4337206414820594
9.231164122,5.122507557625894,-3.57776822340579,-1.4798225740082658
9.235940007,4.995620428734997,-3.3210541107983347,-1.5197828736212715
9.240715892,4.8775886577506435,-3.0801862781400104,-1.5533310815349333
9.245491778,4.76888181024306,-2.8560756531381255,-1.5802435351555388
9.250267663,4.669869976930842,-2.6494707380928504,-1.600343902668204
9.255043549,4.580822795160666,-2.4609576636104458,-1.6135034283204597
9.259819434,4.501909292929073,-2.290961572434721,-1.619640903008803
9.264595267,4.43319853867672,-2.1397492813740295,-1.6187223764492016
9.269371153,4.37466107356161,-2.007433159870667,-1.6107606281847242
9.274147038,4.326171096802498,-1.8939761550499121,-1.5958144148886988
9.278922924,4.28750936909009,-1.7991978851426225,-1.5739875108362344
9.283698809,4.258366794070566,-1.722781716069375,-1.5454275570676537
9.288474694,4.2383486335388305,-1.6642827297853295,-1.5103247327439102
9.29325058,4.226979308208901,-1.623136487780469,-1.4689102596465269
9.298026465,4.223707732703198,-1.598668488951471,-1.4214547478979491
9.302802351,4.227913130688192,-1.5901042179277896,-1.3682663879883523
9.307578236,4.238911273884133,-1.5965796778498087,-1.3096889913038885
9.312340788,4.255961087015013,-1.6171523005555526,-1.2460998787516453
9.317129955,4.27827155966598,-1.650812127115518,-1.1779076149401961
9.32190584,4.305008905492335,-1.6964931526261948,-1.1055495838582807
9.326668444,4.335303909268952,-1.753084731080158,-1.0294894012397047
9.331457611,4.3682594028462125,-1.8194429389189513,-0.9502141589295676
9.336233497,4.40295781213246,-1.894401799498385,-0.8682314976600761
9.340996049,4.438468718693886,-1.9767842751229885,-0.7840665067376776
9.345785267,4.47385638140023,-2.0654129385099615,-0.6982584522038568
9.350561153,4.508187165710522,-2.159120241475812,-0.6113573389426494
9.355337038,4.540536830655699,-2.2567583052085123,-0.5239203167592199
9.360112924,4.569997626302217,-2.357208163548842,-0.4365079453585636
9.364888809,4.595685157436057,-2.459388398074003,-0.3496803380928162
9.369664642,4.616744972346446,-2.5622631112693286,-0.2639932090282512
9.374440528,4.63235883886238,-2.6648491915394223,-0.17999385208704283
9.379216413,4.641750673140913,-2.766222831158209,-0.09821708460779363
9.383992299,4.644192090047879,-2.8655252654609384,-0.019181190586524306
9.388768184,4.639007547221391,-2.9619677086541105,0.05661609888692865
9.393544069,4.6255790579778,-3.054835468583374,0.12870154884987806
9.398319955,4.603350451036222,-3.143491229657074,0.1966302471360122
9.40309584,4.5718311575675274,-3.227377499845356,0.259989273759798
9.407871726,4.5305995083485,-3.30601822420408,0.3184011722971446
9.412634278,4.479305525931455,-3.3790195736338227,0.3715271831267397
9.417423497,4.417673198894351,-3.4460699234991288,0.4190701995881615
9.42219933,4.34550222760032,-3.5069390422367377,0.4607774099334301
9.426961934,4.2626692335990395,-3.5614765151323735,0.49644259039638744
9.431751101,4.169128427870759,-3.6096094330323787,0.5259080177755708
9.436526986,4.06491173646108,-3.6513393799002447,0.5490659736274542
9.44128959,3.9501283855223144,-3.6867387568796186,0.5658598164977138
9.446078757,3.8249639511883107,-3.715946483952462,0.5762846035472126
9.450854642,3.6896788829272786,-3.739163123456206,0.5803872483915286
9.455617194,3.5446065119924097,-3.7566454727196685,0.5782662078831569
9.460406413,3.3901505593669228,-3.768700675961005,0.5700706968258908
9.465182299,3.2267821602676054,-3.7756799084094643,0.5559994361021576
9.469944851,3.055036424901411,-3.7779716883823267,0.5362989462701578
9.474734017,2.87550855778233,-3.7759948757524797,0.511261405183637
9.479509903,2.688849560470868,-3.770191417836278,0.48122209443532726
9.484285788,2.4957615450136936,-3.7610189061508366,0.44655646527004406
9.489061674,2.296992687538529,-3.748943009658943,0.4076768599243854
9.493837559,2.0933318533063634,-3.7344298519653507,0.36502892902509887
9.498600111,1.8856029259622968,-3.7179384013947043,0.3190877896280365
9.50338933,1.6746588747104876,-3.6999129439366754,0.27035397159847735
9.508165215,1.4613755936859678,-3.680775709675642,0.2193492021912897
9.512927767,1.2466455480321672,-3.660919723527362,0.166612079765227
9.517716986,1.031371261364385,-3.6407019508752803,0.11269368751031644
9.522492872,0.8164586797410418,-3.6204368080102105,0.05815319695839303
9.527255424,0.602810448324609,-3.6003901060958534,0.0035535091012557354
9.53204459,0.39131913885406017,-3.580773495688994,-0.050543021540139635
9.536820476,0.18286046895610528,-3.561739476642522,-0.10357873729259963
9.54158308,-0.021713441931192765,-3.5433770355250327,-0.15500466241265046
9.546372247,-0.2215807309708526,-3.5257079694955857,-0.20428428618828345
9.551148132,-0.415956311248096,-3.5086839518355464,-0.25089711093402517
9.555910684,-0.6040981945715664,-3.492184389985428,-0.29434193631492944
9.560699903,-0.7853135570979173,-3.4760151218517,-0.33413985752790615
9.565475788,-0.9589644849021086,-3.4599079901994028,-0.36983696276909084
9.57023834,-1.1244733354902516,-3.4435213279955024,-0.40100672489596323
9.575027559,-1.281327651284822,-3.4264413795132938,-0.427252092481065
9.579803392,-1.42908456240796,-3.4081846728109544,-0.44820729546861315
9.584565997,-1.567374618700904,-3.388201348907145,-0.4635393893531981
9.589355163,-1.6959049947313558,-3.365879441733903,-0.4729495684803933
9.594131049,-1.8144620163180083,-3.340550090956477,-0.4761742833748484
9.598893653,-1.9229129626455022,-3.311493657251385,-0.4729861988746011
9.603682819,-2.021207104277724,-3.2779466969028883,-0.46319502941135754
9.608458705,-2.109375944282261,-3.239109739939166,-0.4466482852496114
9.613221257,-2.187532637193598,-3.1941558038586857,-0.4232319591799823
9.618010476,-2.255870568549705,-3.14223956369687,-0.3928711774105994
9.622786361,-2.3146610861237296,-3.0825070891265334,-0.35553083160107124
9.627548913,-2.3642503827106824,-3.0141060507450814,-0.3112162015068513
9.63233808,-2.405055539495035,-2.936196290799952,-0.2599735698814703
9.637113965,-2.4375597487423164,-2.84796064832018,-0.20189082345061685
9.641876569,-2.4623067448986693,-2.7486159248330044,-0.13709802630298243
9.646665736,-2.479894484108522,-2.6374238743682272,-0.06576794537065771
9.651441622,-2.490968123531064,-2.5137021000905557,0.011883497758608051
9.656204174,-2.4962123634525395,-2.3768347394823137,0.09559687824030831
9.660993392,-2.496343226838803,-2.2262828204249336,0.18506905395544532
9.665769278,-2.4920993624481205,-2.0615941717741033,0.27995311718819726
9.670545163,-2.4842329687530844,-1.882412774122664,0.3798585409392565
9.675321049,-2.4735004465275092,-1.6884874394536233,0.4843515453177161
9.680096934,-2.4606528977486093,-1.4796797123513739,0.5929557055402482
9.684859486,-2.4464265968883603,-1.2559708903647266,0.7051528196473683
9.689648653,-2.4315335668835925,-1.0174680669362683,0.8203840516481783
9.694424538,-2.4166523952309658,-0.7644091069448163,0.9380513643683389
9.699187142,-2.4024194253201876,-0.49716647234750544,1.0575192552780892
9.703976309,-2.38942045458516,-0.216249823789355,1.178116807406203
9.708752194,-2.3781830651946985,0.07769266640241779,1.2991400658255576
9.713514747,-2.3691697056874896,0.3838743435014948,1.419854748331276
9.718303965,-2.362771633378524,0.7013714832384382,1.5394992971822024
9.723079851,-2.3593038169527096,1.0291261157960572,1.6572882771065784
9.727842403,-2.3590008856168136,1.3659502736164908,1.7724161225418342
9.732631622,-2.3620141951003264,1.7105316598619151,1.8840612334516598
9.737407455,-2.368410061872582,2.0614407177999814,1.991390413705322
9.742170059,-2.378169195873222,2.4171390642470336,2.093563639382366
9.746959226,-2.3911873399322316,2.775989232743903,2.189739137427903
9.751735111,-2.407277102219589,3.1362656547724295,2.2790787486850084
9.756497715,-2.4261709477569604,3.4961667905965026,2.3607535438861325
9.761286882,-2.4475252970698382,3.8538283057854477,2.4339496566765915
9.766062767,-2.470925664767692,4.2073371755776785,2.497874293934568
9.770825319,-2.4958927581319195,4.554746587208874,2.5517618803201545
9.775614538,-2.521889445367875,4.8940915002298,2.5948802910422852
9.780390424,-2.5483284946469413,5.223404716626381,2.6265371243060143
9.785152976,-2.5745809780717663,5.540733306134888,2.646085962824049
9.789942194,-2.5999852290459917,5.844155227436991,2.6529325720734422
9.794718028,-2.6238562371830594,6.131795982876537,2.6465409814845997
9.799480632,-2.6454953618408545,6.401845142933389,2.6264393933165646
9.804269799,-2.6642002435488523,6.652572576882958,2.592225862572748
9.809045684,-2.679274791901939,6.88234422781823,2.5435736900540626
9.813808288,-2.6900391288905254,7.0896372734767334,2.480236469717308
9.818597455,-2.6958393681852564,7.2730545190732405,2.4020527310963726
9.82337334,-2.696057113737653,7.431337874562618,2.308950117801773
9.828135892,-2.690118565327458,7.563380776398603,2.2009490441247745
9.832925111,-2.6775031244194323,7.668239422842193,2.0781657735531733
9.837700997,-2.6577514007942447,7.745142702120867,1.9408148655277369
9.842463549,-2.630472528697018,7.793500704151291,1.7892109399894127
9.847252715,-2.595350710462742,7.812911719010829,1.623769713159984
9.852028601,-2.5521509154883617,7.803167638767609,1.4450082625604075
9.856791205,-2.500723672811303,7.76425769354046,1.2535444845196042
9.861580372,-2.441008906241364,7.696370467640408,1.0500957133825863
9.866356257,-2.373038771822602,7.599894157222604,0.8354764782921437
9.871118809,-2.2969394682441218,7.4754150469276945,0.6105953807613228
9.875908028,-2.2129320015746403,7.3237141993933035,0.3764510842141898
9.880683913,-2.121331896298788,7.145762368154356,0.13412741518153176
9.885459799,-2.0225478550329776,6.942713161212924,-0.11521241515829227
9.890235684,-1.9170793794439296,6.715894499329112,-0.37033245094333483
9.895011569,-1.8055133747325556,6.466798429748488,-0.629931465071665
9.899787455,-1.688519769541963,6.197069372530182,-0.8926512278749088
9.904563288,-1.5668461922776302,5.9084908927803825,-1.1570855222972674
9.909339174,-1.4413117535721607,5.602971107853054,-1.4217898462565597
9.914115059,-1.3127999929667507,5.282526853887225,-1.685291732287115
9.918890944,-1.1822510557942898,4.9492667508375,-1.9461016041719756
9.92366683,-1.050653173711221,4.605373319334119,-2.202724080232941
9.928442715,-0.9190335293205573,4.253084316169169,-2.4536696234238473
9.933218601,-0.7884485918643677,3.8946734678022894,-2.6974664295070143
9.937994486,-0.6599740170763227,3.5324307928296794,-2.9326724365004027
9.942757038,-0.5346942100091001,3.1686427146455514,-3.157887331359613
9.947546257,-0.4136916549741433,2.8055721743043183,-3.3717644235983633
9.952322142,-0.29803612156177567,2.445438960623612,-3.5730222503597666
9.957084694,-0.1887738598993311,2.0904004796254405,-3.7604557734501305
9.961873861,-0.08691690169165443,1.7425331882783275,-3.9329470261683923
9.966649747,0.006567413978392174,1.4038149179551613,-4.089475066557082
9.971412351,0.09076656976838207,1.0761083108235125,-4.229125094178004
9.976201517,0.16483253364591866,0.7611455872830524,-4.3510965900345875
9.980977403,0.22799083754535285,0.4605148542724209,-4.454710344387293
9.985740007,0.279548954140513,0.175648152430393,-4.539414245710539
9.990529174,0.3189038585906434,-0.09218857579089638,-4.604787716895803
9.995305059,0.3455486677916777,-0.3419034357161837,-4.650544703313287
10.00006761,0.35907825803841675,-0.5725843133602672,-4.676535143079854
10.00485683,0.35919377449588263,-0.7835022922647935,-4.682744883648424
10.00963272,0.34570596412681015,-0.9741126992976089,-4.669294048694811
10.01439527,0.3185372883276068,-1.1440537780231583,-4.636433899976841
10.01918443,0.27772280061003984,-1.2931430479772947,-4.584542274398595
10.02396032,0.223409803923418,-1.4213714689098575,-4.5141177037202365
10.02872292,0.15585632706290897,-1.5288955850480812,-4.425772343549042
10.03351209,0.07542847779891972,-1.6160278711291534,-4.320223851405457
10.03828798,-0.017403257346446068,-1.6832255370747269,-4.198286362531052
10.04305058,-0.12206868811712906,-1.7310780716289407,-4.060860717745956
10.04783975,-0.23790348497396513,-1.7602938181735919,-3.908924100674616
10.05261563,-0.36415554186784416,-1.7716858796841655,-3.7435192424268005
10.05737818,-0.4999920414351281,-1.7661576456545318,-3.5657433506402945
10.0621674,-0.6445071230532239,-1.7446882227937677,-3.37673691693298
10.06694329,-0.7967300519047492,-1.7083180341705984,-3.1776725524696947
10.07170584,-0.9556337865070573,-1.658134828929428,-2.9697439955373346
10.07649501,-1.1201438431748854,-1.5952603174145235,-2.754155427591917
10.08127089,-1.2891473585399598,-1.5208376152841583,-2.5321112250313047
10.0860335,-1.46150225537601,-1.4360196458634162,-2.3048062628840915
10.09082266,-1.6360464223402973,-1.3419586136033832,-2.073416873691392
10.09559855,-1.8116068245802919,-1.2397966242401526,-1.839092550136432
10.10036115,-1.987008469168584,-1.1306574902784245,-1.6029484635767526
10.10515032,-2.1610831567284405,-1.0156397248872755,-1.3660588528969566
10.1099262,-2.3326779581896404,-0.8958106941523256,-1.1294513196515363
10.11468876,-2.5006633632621,-0.7722018676512098,-0.8941020470829073
10.11947798,-2.6639410548297393,-0.6458050810996233,-0.6609319428875137
10.12425386,-2.8214512708671586,-0.5175697027842423,-0.4308036887643766
10.12901641,-2.972179722468385,-0.3884005779721988,-0.2045196636731346
10.13380558,-3.1151640430860104,-0.2591566127489671,0.0171793078454755
10.13858152,-3.2494997502764202,-0.13064985114350264,0.2336144459421144
10.14334407,-3.374345707473622,-0.003644897466587738,0.44416882196191587
10.14813324,-3.488929079803004,0.12114145977926982,0.6482865706306374
10.15290912,-3.5925497842906724,0.24304055447045989,0.8454716048303066
10.15767173,-3.6845844395776974,0.361432192687111,1.0352859298448962
10.16246089,-3.764489821429187,0.47574513191114576,1.2173476440662816
10.16723678,-3.8318058269695223,0.5854577433463829,1.391328694463139
10.17199933,-3.8861579439894887,0.690098876018553,1.5569524331496052
10.17678855,-3.927259214867319,0.7892489071830686,1.7139910034651369
10.18156443,-3.9549116802452344,0.8825409338009244,1.8622625749463815
10.18632699,-3.9690072862581354,0.9696620367428482,2.001628446737988
10.19111615,-3.969528239738016,1.050354533846191,2.1319900452716367
10.19589204,-3.9565467969917423,1.1244171296983883,2.2532858504570648
10.20065464,-3.9302244727786064,1.191705868092459,2.3654882920596694
10.20544381,-3.8908106571396703,1.2521347963038951,2.4686006627005277
10.21021969,-3.8386406292618025,1.3056762575453467,2.5626540955231207
10.2149823,-3.7741329600456432,1.3523607382176066,2.647704653243758
10.21977146,-3.6977862987543224,1.3922762091209284,2.7238305715155766
10.22454735,-3.6101755442046466,1.4255669139551366,2.791129693792995
10.2293099,-3.5119474075119284,1.4524315735901072,2.8497171276914712
10.23409912,-3.403815381327105,1.4731209901120574,2.8997231447636875
10.23887501,-3.286554139425397,1.4879350499882489,2.941291337284186
10.24363756,-3.16099339977189,1.4972191404188027,2.9745770376347527
10.24842678,-3.028011293085548,1.501360006790086,2.999745998624584
10.25320261,-2.8885272868661485,1.5007810919508482,3.0169733267367964
10.25796522,-2.743494721476302,1.4959374096910438,3.026442654845895
10.26275438,-2.5938930200233257,1.4873100152137855,3.0283455362972425
10.26753027,-2.440719637463872,1.475400144432325,3.02288103829458
10.27229287,-2.284981816724816,1.460723101436595,3.010255509277271
10.27708204,-2.127688221052602,1.4438019792640793,2.990682492406794
10.28185792,-1.969840512753575,1.4251613029828085,2.964382755465316
10.28662048,-1.8124249494137556,1.4053206859020093,2.931584406427838
10.29140969,-1.6564040698207407,1.3847885894122909,2.8925230636951778
10.29618558,-1.5027085431147804,1.3640562745809444,2.847442050423072
10.30094813,-1.3522292559302163,1.3435920293595485,2.796592583495199
10.30573735,-1.205809713123413,1.3238357493633055,2.740233929426425
10.31051318,-1.0642388277789219,1.3051939429780057,2.6786335018608667
10.31527579,-0.9282441752319759,1.2880352233835435,2.612066878429881
10.32006496,-0.7984857836185003,1.2726863412678022,2.540817718680344
10.32484084,-0.6755505298943404,1.2594288027958058,2.4651775696581897
10.32960344,-0.5599472054662926,1.24849610798023,2.3854455514838184
10.33439261,-0.4521023097950795,1.2400716351049421,2.301927921631329
10.3391685,-0.3523566238356751,1.2342871874049104,2.2149375231962987
10.34393105,-0.2609626081468896,1.23122220893547,2.1247931286983084
10.34872027,-0.178082662925537,1.230903667600327,2.0318186963749176
10.35349615,-0.1037882789271919,1.233306594744285,1.936342559929824
10.3582587,-0.03806009898660558,1.2383552626000178,1.8386965748343767
10.36304792,0.019211100506159304,1.2459249732336184,1.7392152443470386
