Time (s),X (m/s^2),Y (m/s^2),Z (m/s^2)
6.004474792,0.5589976930274633,-0.5848587442301719,0.6647047972126187
6.014400792,0.7329624355970759,-1.1892969369009057,0.5999921578588957
6.024327792,0.9025439304502679,-1.7822800403507364,0.53080213402075
6.034253792,1.065841164947393,-2.35891878478231,0.45765310373668683
6.044179792,1.2209902594542705,-2.9144778104546094,0.3811107514645751
6.054106792,1.3661906536422275,-3.444430859754118,0.3017850836753608
6.064032792,1.499730917493388,-3.944514482454761,0.22032684834728267
6.073958792,1.6200137917179709,-4.410779633049131,0.13742333555126116
6.083884792,1.7255800581064338,-4.8396405222116945,0.05379354799310052
6.093811792,1.8151308424598134,-5.2279200675696105,-0.029817260489329173
6.103737792,1.887547963001638,-5.572891271844602,-0.11264367371282365
6.113663792,1.9419119575036368,-5.872313839904814,-0.19390681383509276
6.123590792,1.977517453851551,-6.124465334666306,-0.27282161571028757
6.133516792,1.9938855904754538,-6.328166175085313,-0.34860460184412045
6.143442792,1.99077324267558,-6.482797810781832,-0.42048205257487964
6.153368792,1.968178868162465,-6.588313477062086,-0.4876984543533986
6.163295792,1.9263448538408687,-6.645241045180406,-0.549525120578483
6.173221792,1.865756329227424,-6.6546776359152044,-0.6052688977810914
6.183147792,1.7871365043391243,-6.6182758560655195,-0.6542808754847305
6.193074792,1.69143867498348,-6.538221732774966,-0.695965006078256
6.203000792,1.5798350985208425,-6.417204633350713,-0.7297865223363187
6.212926792,1.4537029725919048,-6.258379642409722,-0.7552800278776095
6.222853792,1.3146077566025078,-6.0653230119591015,-0.7720571343075334
6.232779792,1.1642840748371521,-5.8419814070780385,-0.7798135243955259
6.242705792,1.0046144407736608,-5.592615749808853,-0.7783353283007379
6.252631792,0.8376060479219233,-5.321740524173699,-0.7675047071964537
6.262558792,0.6653658827069938,-5.034059449992458,-0.7473045454896777
6.272484792,0.49007442778226545,-4.734398464939529,-0.7178221592187463
6.282410792,0.31395823845449666,-4.427636975292961,-0.6792519334892326
6.292337792,0.13926169021360627,-4.118638347978666,-0.6318968053225653
6.302263792,-0.03178178867598822,-3.8121806208591464,-0.5761685105151032
6.312189792,-0.19697866985347068,-3.512888404850713,-0.5125865160001737
6.322115792,-0.35420411888783887,-3.2251669396357077,-0.4417755654469176
6.332042792,-0.5014302749826809,-2.9531392430626786,-0.3644617774635484
6.341968792,-0.6367536522161841,-2.700587260878888,-0.2814672532438689
6.351894792,-0.7584212936182311,-2.4708978762488227,-0.19370317269649776
6.361821792,-0.8648553094512371,-2.2670145765228327,-0.10216138326946085
6.371747792,-0.9546754365570121,-2.0913954986124756,-0.007904512268965604
6.381673792,-1.0267192673139907,-1.9459784863654352,0.08794533966366215
6.391599792,-1.080059815120261,-1.8321536962965914,0.18421923970673407
6.401526792,-1.1140201085941654,-1.7507441841131344,0.2797152878401139
6.411452792,-1.1281845388235041,-1.701994794694899,0.3732135667885818
6.421378792,-1.1224067227249575,-1.6855695625840654,0.46349200716271566
6.431305792,-1.0968136905794847,-1.7005577084244092,0.5493429648484733
6.441231792,-1.051806256924491,-1.7454881896488386,0.6295902755660368
6.451157792,-0.988055490957003,-1.818352632653294,0.7031065249308502
6.461084792,-0.9064952645052752,-1.916636341601734,0.768830253795828
6.471010792,-0.8083109206846149,-2.037356949878595,0.8257828072139759
6.480936792,-0.6949241723751649,-2.177110158485533,0.8730845286031508
6.490862792,-0.5679744045322208,-2.3321218954300833,0.909969997481205
6.500789792,-0.42929661644468825,-2.49830613459371,0.9358020103845315
6.510715792,-0.2808962986297689,-2.6713275336613944,0.9500840122418565
6.520641792,-0.12492159394329369,-2.8466679883623014,0.9524707014574565
6.530567792,0.0363668567943618,-3.019696152102656,0.9427765572254325
6.540494792,0.2006279392539878,-3.1857389326652306,0.9209820713647137
6.550420792,0.3654734771469696,-3.3401539486924032,0.8872375066723843
6.560346792,0.5285025191946473,-3.478401907919422,0.8418640460667748
6.570273792,0.687335970560299,-3.596117857931343,0.7853522388274122
6.580199792,0.8396510280196512,-3.689180260671948,0.7183576909690315
6.590125792,0.9832148782922161,-3.753776856380452,0.6416939872155797
6.600052792,1.1159171297441282,-3.7864663134401058,0.5563228743718056
6.609978792,1.2358004695135747,-3.7842347098877562,0.46334178201465576
6.619904792,1.341089070472182,-3.7445459613219723,0.363968806921137
6.629830792,1.430214313961248,-3.6653853983739357,0.2595253417726531
6.639757792,1.5018374434667574,-3.545295802562545,0.15141658478832035
6.649683792,1.5548688202670133,-3.3834053285344785,0.041110222699607166
6.659609792,1.5884835136348296,-3.1794468690830118,-0.06988636802970775
6.669536792,1.6021330236085043,-2.9337685527680875,-0.18005001050737574
6.679462792,1.5955530004511194,-2.647335198769374,-0.2878662778003907
6.689388792,1.5687668876022363,-2.3217206869623346,-0.39185424554870535
6.699314792,1.5220854707052955,-1.95909133137259,-0.4905909675075562
6.709241792,1.4561023626363572,-1.5621804716001169,-0.5827351841088074
6.719167792,1.3716854941948262,-1.134254620177879,-0.667049775244144
6.729093792,1.2699647152016598,-0.6790716256256722,-0.7424224840042655
6.739020792,1.1523156457140915,-0.20083143199164677,-0.8078844711682575
6.748946792,1.0203399566952045,0.2958798662354857,-0.8626263129875795
6.758872792,0.8758423067444265,0.8061518659281652,-0.9060111257706329
6.768798792,0.7208042159851974,1.3248166938487427,-0.9375845837588527
6.778725792,0.5573552162040871,1.8465198724823473,-0.9570816841287637
6.788651792,0.3877416724156099,2.365794197743516,-0.9644301997104769
6.798577792,0.21429372004287303,2.877135586953928,-0.9597508432186298
6.808504792,0.03939080020953584,3.3750798434362275,-0.9433542402849886
6.818430792,-0.13457369861054777,3.8542792801537233,-0.9157348613583636
6.828356792,-0.3052281706061361,4.3095781442788335,-0.8775620869293114
6.838283792,-0.4702583670119652,4.7360857855946366,-0.8296685836094809
6.848209792,-0.627442285792042,5.1292465161050345,-0.7730361707336414
6.858135792,-0.7746838471502328,5.484905120619227,-0.7087793753826872
6.868061792,-0.9100448286255647,5.799367004167674,-0.6381269088675426
6.877988792,-1.0317745445518527,6.069452007936075,-0.5624013390173265
6.887914792,-1.1383367765716925,6.292540994952106,-0.4829972700651484
6.897840792,-1.2284334960191843,6.4666143995028635,-0.40135837154237125
6.907767792,-1.301024965132284,6.590282045758997,-0.31895361899095764
6.917693792,-1.355345860458654,6.6628036663648835,-0.2372531227511588
6.927619792,-1.390917125468691,6.684099687797694,-0.15770392728399554
6.937545792,-1.4075533271964134,6.654751994692921,-0.08170616391079183
6.947472792,-1.4053653616390265,6.57599453880929,-0.010589935721323843
6.957398792,-1.3847584238373027,6.449693818035185,0.05440669526862144
6.967324792,-1.3464252308561069,6.278319414541337,0.11215826244335302
6.977251792,-1.2913345590770615,6.064904946289238,0.16167065312525866
6.987177792,-1.2207152307500488,5.812999949891719,0.20209775762140436
6.997103792,-1.1360357578640208,5.526613372761967,0.23275572293453975
7.007030792,-1.0389799235384993,5.210149506554224,0.2531345582821676
7.016956792,-0.9314186523347753,4.868337340399438,0.26290687941477137
7.026882792,-0.8153785915801496,4.506154449330909,0.2619336266575495
7.036808792,-0.6930078959243086,4.128746657629621,0.2502666464740945
7.046735792,-0.5665397752386087,3.74134482499954,0.22814808421849322
7.056661792,-0.4382544281469149,3.3491801921516138,0.19600659231678275
7.066587792,-0.3104400357047377,2.9573997888550037,0.15445041207672633
7.076514792,-0.1853535283840215,2.5709834491828905,0.10425744036721185
7.086440792,-0.06518186215846752,2.1946639918324635,0.04636244589838146
7.096366792,0.04799545510817785,1.8328521022898718,-0.01815834764377665
7.106292792,0.15224185871717633,1.4895673898317217,-0.08810504581374397
7.116219792,0.24579655038191392,1.16837697555869,-0.1621739264621678
7.126145792,0.3271040203359774,0.8723427903257406,-0.2389789965907585
7.136071792,0.3948397351432655,0.6039785279930621,-0.31707488928067357
7.145998792,0.44793157682665513,0.3652169321048021,-0.3949807095414485
7.155924792,0.4855767385851923,0.15738782576923777,-0.471204432467251
7.165850792,0.5072538830535408,-0.018792948131962747,-0.544267459267244
7.175777792,0.5127304454127489,-0.1632237162621624,-0.6127289419185069
7.185703792,0.5020650238764321,-0.2764065084432095,-0.675209495392972
7.195629792,0.475604856077087,-0.3594263014334381,-0.7304139307794971
7.205555792,0.4339784400513622,-0.41392047344072813,-0.7771526647021435
7.215482792,0.3780834264994283,-0.442039093543329,-0.8143614883559004
7.225408792,0.30906998478319203,-0.4463967862837808,-0.8411194098873198
7.235334792,0.2283199257963582,-0.43001702248927787,-0.8566643145408579
7.245260792,0.1374219451851293,-0.3962697934476733,-0.8604062178044971
7.255187792,0.038143424509322524,-0.34880372545709404,-0.8519379186493453
7.265113792,-0.06760070897148657,-0.29147378197754115,-0.8310428936629943
7.275039792,-0.17778151367611508,-0.2282657765607061,-0.7977003086930411
7.284966792,-0.29029137034196784,-0.16321897711314595,-0.752087062516241
7.294892792,-0.40298051483036773,-0.10034811782578612,-0.6945768168059091
7.304818792,-0.5136941453984291,-0.04356614773342678,-0.6257360077109387
7.314745792,-0.6203094792758387,0.0033909660362226057,-0.5463168758200591
7.324671792,-0.720772138656819,0.03703609638430379,-0.45724759241252166
7.334597792,-0.8131312607816089,0.054198248458177736,-0.3596196003123322
7.344523792,-0.8955727514440018,0.0520841370448273,-0.2546723271841452
7.354450792,-0.9664501362001148,0.0283329992011381,-0.14377546748803108
7.364376792,-1.024312507870055,-0.0189362896421131,-0.02840906629579008
7.374302792,-1.0679291209193351,-0.09108659248802631,0.08985832632536442
7.384229792,-1.0963102411981445,-0.18893302705611367,0.20939312772900384
7.394155792,-1.1087239219677052,-0.31272310738956044,0.328521487342024
7.404081792,-1.1047084432733938,-0.46212682916000775,0.44555497957924606
7.414007792,-1.0840802208513605,-0.6362368470879226,0.5588168341962962
7.423934792,-1.0469370622859966,-0.8335787242892726,0.6666682889695892
7.433860792,-0.9936567215517723,-1.0521310688357997,0.7675346295208438
7.443786792,-0.9248907776370958,-1.2893552140803974,0.859930469177212
7.453713792,-0.8415539373344642,-1.5422339477668716,0.942483822154817
7.463639792,-0.7448089348000568,-1.807318652189928,1.013958537853804
7.473566,-0.6360472698059415,-2.080784085318214,1.073274691536825
7.483492,-0.5168660922043801,-2.358489912541724,1.11952656459176
7.493419,-0.3890416021795663,-2.6360479925872267,1.151997893440941
7.503345,-0.2544993948175689,-2.908894331397027,1.170174117843395
7.513271,-0.1152822332428128,-3.1723645461510444,1.1737514149540351
7.523198,0.026484214573168106,-3.4217716286074755,1.1626423633663623
7.533124,0.1686270972524933,-3.6524847615275005,1.1369781401092969
7.54305,0.3089629495152346,-3.8600079227196185,1.0971072119952323
7.552977,0.44533447978737833,-4.040057008257291,1.0435905394449314
7.562903,0.5756469384288171,-4.18863422208015,0.9771933645362789
7.572829,0.6979034332236269,-4.302098516971063,0.8988737050322033
7.582755,0.8102385742271946,-4.377230934132793,0.8097677238936538
7.592682,0.9109498569113963,-4.4112937747049354,0.7111721923300264
7.602608,0.9985262311290825,-4.402082642688368,0.6045243168490199
7.612534,1.0716733541622165,-4.347970518866287,0.4913792578273807
7.622461,1.129335089074576,-4.247943153695756,0.373385726013479
7.632387,1.170710883738668,-4.101625200403391,0.25226009820460465
7.642313,1.195268748701025,-3.909296646723292,0.12975953730936876
7.652239,1.2027536395770684,-3.671899244985432,0.007654630102759096
7.662166,1.1931911373756365,-3.3910327857636116,-0.11229793337127485
7.672092,1.1668864038035223,-3.0689412104556646,-0.22838212060605717
7.682018,1.124418465274712,-2.7084887137356457,-0.3389482607361042
7.691945,1.0666299485826916,-2.313126147193285,-0.4424372320869857
7.701871,0.9946124554315817,-1.8868481964976742,-0.53740272699818
7.711797,0.9096878260689994,-1.434141958323781,-0.6225312568277073
7.721723,0.8133856063394859,-0.959927681660146,-0.6966596398222472
7.73165,0.7074170965710063,-0.4694925555541394,-0.7587897972584413
7.741576,0.5936464215430581,0.03158147909121305,-0.80810075969979
7.751502,0.4740591148411711,0.5374948398853312,-0.8439578465329347
7.761429,0.3507287555012889,1.042311221026029,-0.8659190227256639
7.771355,0.2257822278771136,1.5400411556621358,-0.8737384583793931
7.781281,0.10136419511421445,2.024727018914943,-0.8673673269636986
7.791207,-0.0203986184950506,2.490528235034375,-0.8469518861409251
7.801134,-0.13743274896302093,2.93180542756552,-0.8128288966888237
7.81106,-0.24775234726271012,3.343202238849476,-0.7655184535556846
7.820986,-0.34949201821087966,3.7197235502591317,-0.7057143309071771
7.830913,-0.44093761979871987,4.056808862913352,-0.6342719800903609
7.840839,-0.5205545291203774,4.350399653985019,-0.5521943617109512
7.850765,-0.5870129179339594,4.596999606610763,-0.4606158342180707
7.860692,-0.6392096264157924,4.793726719110916,-0.36078435635128614
7.870618,-0.6762862779498175,4.938356427315107,-0.25404228746712487
7.880544,-0.6976433392900891,5.029355017767152,-0.1418060890995967
7.89047,-0.7029498967412284,5.065902765663662,-0.025545245539863044
7.900397,-0.6921489879251264,5.047906396356846,0.09323926751974614
7.910323,-0.6654583989471896,4.976000639913686,0.2130366293196586
7.920249,-0.6233669079016966,4.851538820940773,0.33234759544511105
7.930176,-0.5666260275019019,4.676572596919941,0.44970535807835665
7.940102,-0.496237371775302,4.45382112478726,0.5636955196895593
7.950028,-0.4134358434795903,4.186630096251659,0.6729748721664224
7.959954,-0.3196689092940708,3.8789212377811935,0.7762886962417644
7.969881,-0.21657229801337646,3.5351330222030732,0.8724863237941439
7.979807,-0.10594252181664256,3.160153485648093,0.9605347386179559
7.989733,0.01029331912247616,2.7592461847664276,1.0395300305078075
7.99966,0.1301099340584111,2.337970461815854,1.1087065629239
8.009586,0.2514178785958467,1.9020973054053494,1.167443763993717
8.019512,0.37209862748229977,1.457522198073771,1.2152705006574012
8.029438,0.4900400463258487,1.0101764242839182,1.251867043822244
8.039365,0.6031716019942848,0.5659383694176149,1.2770646783915198
8.049291,0.7094986416552513,0.1305463666105508,1.2908430564551103
8.059217,0.807135078446619,-0.29048536296595917,1.2933254322731333
8.069144,0.8943338525624301,-0.6919461869422914,1.2847719494224772
8.07907,0.969514595382008,-1.0690025736939532,1.2655711730563561
8.088996,1.031288014313147,-1.4172644177131581,1.2362300789237761
8.098923,1.0784766324659558,-1.7328431622363465,1.1973627295261757
8.108849,1.1101316434696393,-2.0124009345773675,1.1496778833399528
8.118775,1.1255457549929047,-2.2531901430273904,1.0939657901246025
8.128701,1.1242619793347595,-2.453083200589232,1.031084423911404
8.138628,1.1060783858011447,-2.6105922324258524,0.9619453988250712
8.148554,1.0710488690083804,-2.724878790831531,0.8874998026996075
8.15848,1.019480022378852,-2.7957537466412887,0.8087241681995114
8.168407,0.951924243622209,-2.823667652566516,0.7266067805847966
8.178333,0.869169239899474,-2.8096919851034756,0.642134497391493
8.188259,0.7722241435543666,-2.755491770041504,0.5562802305936092
8.198185,0.6623024937954092,-2.6632901844987367,0.46999121750832396
8.208112,0.5408023844114023,-2.535825808175051,0.384178183108735
8.218038,0.40928412055783603,-2.376303270340582,0.29970547401115943
8.227964,0.26944576628612904,-2.1883381082540665,0.2173822241562887
8.237891,0.1230969962873722,-1.9758967168207668,0.13795459464957188
8.247817,-0.02786831160107887,-1.7432323261140148,0.06209911480726622
8.257743,-0.18150029316014904,-1.4948179894513447,-0.009582862962294396
8.267669,-0.3358216699748348,-1.2352775965546248,-0.07656959579222025
8.277596,-0.4888562278634653,-0.9693159415785056,-0.1384222849537491
8.287522,-0.6386567642539462,-0.701648873758649,-0.194787338131416
8.297448,-0.7833320851150012,-0.4369345397172466,-0.2453975937653973
8.307375,-0.9210726553665555,-0.1797066921961225,-0.29007254774035524
8.317301,-1.0501745355725711,0.0656890087387645,-0.3287176262539041
8.327227,-1.16906127282347,0.29515483814550836,-0.36132255072044434
8.337153,-1.2763034554843133,0.5048962029090327,-0.38795884170062317
8.34708,-1.3706356893983618,0.6914714886988094,-0.4087765093305762
8.357006,-1.450970805538106,0.8518359477068337,-0.42399997796526195
8.366932,-1.5164111636698892,0.9833791190453464,-0.433923294371426
8.376859,-1.5662569711473329,1.0839553793806518,-0.43890467469640193
8.386785,-1.6000115891328577,1.1519073295113587,-0.4393604575597765
8.396711,-1.617383850148007,1.1860818323560671,-0.43575854705555256
8.406637,-1.618287461179403,1.185838629005146,-0.4286114445689314
8.416564,-1.602837615363148,1.1510515713326979,-0.41846897676143874
8.42649,-1.5713449811859561,1.0821026201162418,-0.4059108271324149
8.436416,-1.5243072790689847,0.9798688639474964,-0.39153897145398947
8.446343,-1.4623986888513432,0.8457029138385139,-0.37597010550169085
8.456269,-1.3864573560162226,0.6814071187611127,-0.3598281402471141
8.466195,-1.2974712780108106,0.48920212573640737,-0.3437368289683736
8.476124125,-1.1965628539460023,0.2716903729766393,-0.3283125849478231
8.486051125,-1.0849723715338215,0.031815156984870495,-0.31415754688929165
8.495977125,-0.9640406860111718,-0.22718404278308493,-0.3018529491943136
8.505903125,-0.8351913204070506,-0.5018192632430252,-0.29195285330523485
8.515830125,-0.699912189320546,-0.7884040363835291,-0.2849782932042343
8.525756125,-0.5597371238980688,-1.0831048881699308,-0.2814118822794216
8.535682125,-0.41622735766197344,-1.3819935985457013,-0.2816929196517154
8.545608125,-0.2709531236645669,-1.6810994795409446,-0.28621302139477234
8.555535125,-0.1254755139492047,-1.9764609596186717,-0.29531228595637116
8.565461125,0.018671238252814432,-2.2641758053969747,-0.3092759842362337
8.575387125,0.15999687725602776,-2.5404493627872387,-0.32833174516310837
8.585314125,0.2970714504341616,-2.8016402547946653,-0.35264719065866895
8.595240125,0.428540632687491,-3.0443030305322742,-0.3823279633643468
8.605166125,0.5531398381988158,-3.265227319179075,-0.417416088907294
8.615092125,0.6697069172124923,-3.461473105139776,-0.45788862223241233
8.625019125,0.7771932586441193,-3.630401808099527,-0.5036565435438128
8.634945125,0.8746731538545678,-3.7697029235116313,-0.5545638916099858
8.644871125,0.9613513187754,-3.8774160520593606,-0.6103871476561255
8.654798125,1.0365685160060647,-3.9519482167918705,-0.6708349083483114
8.664724125,1.0998052617030618,-3.992086432093705,-0.7355479082269821
8.674650125,1.1506836420165616,-3.997005550212291,-0.8040994678289745
8.684577125,1.1889672998914973,-3.966271469756585,-0.8759964520539164
8.694503125,1.2145596849970202,-3.8998398452253276,-0.9506808237975249
8.704429125,1.2275006867788083,-3.798050484200342,-1.0275318715666113
8.714355125,1.2279617924330501,-3.6616176569689456,-1.1058691783221986
8.724282125,1.216239927911837,-3.4916165723588297,-1.1849563833069023
8.734208125,1.1927501515748218,-3.289466296325457,-1.264005769669816
8.744134125,1.158017377482805,-3.0569094095775964,-1.342183689013714
8.754061125,1.1126673085600711,-2.7959887189045567,-1.418616810902922
8.763987125,1.05741675826591,-2.509021353528925,-1.4923991626508721
8.773913125,0.9930635322791774,-2.198570591446112,-1.5625999038411453
8.783839125,0.9204760287426964,-1.86741577029711,-1.6282717616988807
8.793766125,0.8405826972550232,-1.5185206426675508,-1.688460037745911
8.803692125,0.7543614741982542,-1.1550005373478556,-1.7422120836739634
8.813618125,0.6628292872135821,-0.7800886868872695,-1.788587136534267
8.823545125,0.5670316977480151,-0.3971020785796497,-1.8266664018587164
8.833471125,0.4680327311042194,-0.009407181343894256,-1.8555632786755691
8.843397125,0.36690493100744503,0.37961410538252427,-1.8744336310576515
