Time (s),X (m/s^2),Y (m/s^2),Z (m/s^2)
6.005542083,-0.9228270837479984,-0.4954148450276577,2.005045694367932
6.015468083,-0.4165416162738965,-0.317812483091715,2.049429177799853
6.025394083,0.08856557777728627,-0.15231287999887028,2.0910685869206205
6.035320083,0.588603877639378,-0.0015566949000309234,2.130755785754097
6.045246083,1.0797797832554823,0.13202598641338598,2.1692182903582644
6.055171083,1.5584399497077774,0.2462571952334684,2.2071033721743776
6.065097083,2.0211115828173103,0.3392492664310991,2.244964067779228
6.075023083,2.4645395814502,0.4094389942699507,2.2832473598522327
6.084949083,2.8857198884329005,0.4556171549708357,2.3222847519875747
6.094875083,3.2819286008276856,0.47695286886739097,2.3622854141326695
6.104801083,3.650746486480387,0.4730123546712434,2.4033320272800687
6.114727083,3.9900786525396446,0.4437717125393587,2.4453794059904417
6.124653083,4.2981692095074,0.38962346143851184,2.4882559251736995
6.134579083,4.573610869155078,0.31137664957928496,2.531667723083036
6.144504083,4.815349505287122,0.21025045377007492,2.575205595819011
6.154430083,5.022683792271317,0.08786128311872755,2.6183544404910606
6.164356083,5.195260116879565,-0.05379649710924897,2.660505045963394
6.174282083,5.333063033551101,-0.21237600628636585,2.7009679737482553
6.184208083,5.436401600766168,-0.38520914220283264,2.738989218845222
6.194134083,5.505891995527438,-0.5693433245132462,2.773767292476126
6.204060083,5.542436852423439,-0.7615831990139579,2.804471327436283
6.213986083,5.547201812063746,-0.9585367342384301,2.8302597751739635
6.223912083,5.521589790564334,-1.1566650662988445,2.850299245593921
6.233838083,5.467213498393564,-1.3523353751633929,2.863783038911602
6.243763083,5.385866745151025,-1.5418760070161557,2.869948933985692
6.253689083,5.2794950678680275,-1.7216329975833533,2.868095827020731
6.263615083,5.1501662134152975,-1.8880271064975171,2.857598854671026
6.273541083,5.000040988090335,-2.0376104481486066,2.8379226831212168
6.283467083,4.831344956816465,-2.167121802164951,2.8086326981400918
6.293393083,4.646341429513661,-2.2735397049093633,2.7694038910655716
6.303319083,4.447306113609639,-2.35413245798596,2.7200273032655113
6.313245083,4.236503740459841,-2.40650423689611,2.660413964979053
6.323171083,4.016166891245248,-2.428636540769408,2.5905963374823884
6.333097083,3.7884771583164936,-2.4189242922183705,2.5107273328189135
6.343022083,3.555548687840369,-2.3762059749832782,2.4210770388593685
6.352948083,3.3194140681160205,-2.299787285786949,2.3220273207105238
6.362874083,3.0820124629862895,-2.1894578740027635,2.214064507015319
6.372800083,2.84517984447154,-2.04550084519563,2.0977704043573038
6.382726083,2.6106411504179805,-1.8686948089882425,1.9738119136226828
6.392652083,2.3800041758545087,-1.6603083563613181,1.8429295454140968
6.402578083,2.1547549963289394,-1.4220869570467127,1.7059251452584487
6.412504083,1.9362547162281887,-1.1562323759340405,1.5636491434982691
6.422430083,1.7257373349641718,-0.8653748197308979,1.416987640147503
6.432356083,1.5243085284468045,-0.5525381414465236,1.2668496214340912
6.442281083,1.3329451518961644,-0.2210985490177052,1.114154581591087
6.452207083,1.1524952837172806,0.12526261769418262,0.9598207908233582
6.462133083,0.9836786513563578,0.48261136546194283,0.8047544089810958
6.472059083,0.8270873106491198,0.8468180066509073,0.6498395947992894
6.481985083,0.683186489114384,1.213617743005225,0.49592970402203035
6.491911083,0.5523155463199829,1.5786739588100072,0.3438396116201858
6.501837083,0.43468904397801655,1.9376432644886727,0.194339144105268
6.511762833,0.33039794892291496,2.2862412961840692,0.04814757932924485
6.521688833,0.23941101287842126,2.620308242615193,-0.0940708327115057
6.531614833,0.1615763897313384,2.935873038568968,-0.23171036292662117
6.541539833,0.09662357172113041,3.229215143770443,-0.36422633456381803
6.551465833,0.04416575353413303,3.496922827364712,-0.49113671931760045
6.561391833,0.0037027633443096983,3.73594690825485,-0.6120228367289517
6.571317833,-0.02537527623797885,3.9436489602781566,-0.726529210458246
6.581243833,-0.04378338404950912,4.117843074325928,-0.8343626470155768
6.591169833,-0.05233608614278647,4.256830371039291,-0.9352906108558996
6.601095833,-0.0519405658073861,4.359425572731309,-1.0291389761347536
6.611021833,-0.04358848448606121,4.424975069216696,-1.1157892410731942
6.620947833,-0.028346399511871154,4.453366048794291,-1.1951752954320172
6.630873833,-0.007344748520072315,4.445026412758604,-1.2672798339947238
6.640799833,0.018234581787392783,4.4009153488879615,-1.3321305084737032
6.650724833,0.0471720332229212,4.3225046048149105,-1.3897959063687728
6.660650833,0.07822537587328901,4.211750673842971,-1.4403814372687127
6.670576833,0.11014574940281507,4.071058281225323,-1.4840251944044731
6.680502833,0.14169450989938162,3.903235735822778,-1.5208938431356462
6.690428833,0.17166059536629544,3.71144288802837,-1.5511785723340572
6.700354833,0.19887807997183657,3.4991326071239373,-1.5750911345251732
6.710280833,0.22224355498325607,3.2699868566755605,-1.5928599984464882
6.720206833,0.24073295459886052,3.027848601561587,-1.6047266387312022
6.730132833,0.2534174374939419,2.7766509190382314,-1.610941982974986
6.740058833,0.25947793805591246,2.5203447987678387,-1.6117630241239644
6.749983833,0.25821801332249605,2.2628271895989815,-1.6074495960922126
6.759909833,0.24907463372812566,2.0078708724302623,-1.5982613162401471
6.769835833,0.23162660420992606,1.7590577008888935,-1.5844547215098999
6.779761833,0.20560036738499893,1.519716647840599,-1.5662806537607343
6.789687833,0.17087303886534014,1.2928679209950082,-1.54398197011006
6.799613833,0.1274726467849164,1.0811741733927958,-1.5177916578158113
6.809539833,0.07557566574918803,0.886899564454742,-1.487931419194279
6.819465833,0.015502021537422785,0.7118771663146708,-1.4546107663575305
6.829391833,-0.052292211655954865,0.5574849890100354,-1.418026640139002
6.839317833,-0.12722418375422925,0.42463072331145085,-1.3783635519868322
6.849242833,-0.20859547119691682,0.3137451605843764,-1.3357942417987239
6.859168833,-0.2956048699978017,0.2247841309497142,-1.290480841892581
6.869094833,-0.387362537970615,0.15723869455523734,-1.2425765317364037
6.879020833,-0.4829052363037484,0.11015322078864316,-1.1922276581915348
6.888946833,-0.5812124062780512,0.08215089394004026,-1.139576283223461
6.898872833,-0.6812227995830549,0.07146609012188562,-1.0847631072666823
6.908798833,-0.7818513656063738,0.07598297996295261,-1.027930702887755
6.918724833,-0.8820060920117762,0.0932796268873787,-0.9692269802083135
6.928650833,-0.9806044999222935,0.12067677459729409,-0.9088087929488647
6.938576833,-1.0765895120775328,0.15529045305718037,-0.846845583742152
6.948501833,-1.1689444377358795,0.19408748317432706,-0.7835229623888743
6.958427833,-1.2567068477776016,0.2339429286878241,-0.7190461127211673
6.968353833,-1.3389811455892042,0.2716985296894586,-0.6536429324024116
6.978279833,-1.4149496739693344,0.30422115430049806,-0.5875668235375232
6.988205833,-1.4838822362493478,0.32846032157380894,-0.5210990674948947
6.998131833,-1.5451439517755818,0.3415038784503419,-0.4545507312178241
7.008057833,-1.5982014118633032,0.34063095624362966,-0.38826406131916535
7.017983833,-1.6426271506902583,0.32336138823353067,-0.32261332483095256
7.027909833,-1.6781024926817354,0.2875008402535962,-0.2580050517221337
7.037835833,-1.7044188787514876,0.2311809903654339,-0.19487762520178967
7.047761833,-1.7214778036313154,0.15289418987239414,-0.13370015354972634
7.057686833,-1.7292895127171024,0.0515221424622224,-0.07497054646767284
7.067612833,-1.7279706091044842,-0.07364175336757199,-0.019212716620907826
7.077538833,-1.7177407110654925,-0.22287664518347827,0.03302716156025206
7.087464833,-1.698918278840082,-0.3960251908361135,0.08118537927886017
7.097390833,-1.671915699786612,-0.5924912811396623,0.12468641955889688
7.107316833,-1.6372336875527127,-0.8112444534609293,0.16294966501031213
7.117242833,-1.5954550213569167,-1.0508308309487497,0.1953970438192139
7.127168833,-1.5472376324716546,-1.309390332378213,0.22146154529229756
7.137094833,-1.493307039034738,-1.5846798172731693,0.24059650808834598
7.147020833,-1.434448134932985,-1.8741017600893082,0.2522855531231225
7.156946833,-1.3714963491436927,-2.1747379851990734,0.25605300271623815
7.166871833,-1.305328205409055,-2.4833879405428902,0.2514746019291406
7.176797833,-1.2368513279490179,-2.7966109415816036,0.2381883389538981
7.186723833,-1.166993957892881,-3.110771778407115,0.2159051484426278
7.196649833,-1.0966940672286416,-3.4220890475549295,0.1844192739555288
7.206575833,-1.0268881806581198,-3.7266855463361774,0.1436180627676287
7.216501833,-0.9585000380188178,-4.020640051685295,0.0934909675859707
7.226427833,-0.8924292479822107,-4.30003979795994,0.03413753429508151
7.236353833,-0.8295400951311881,-4.561032968922463,-0.03422583839114983
7.246279833,-0.7706506654153824,-4.799880528588497,-0.11126057296753468
7.256205833,-0.7165224484139087,-5.01300673522704,-0.19650221595423956
7.266130833,-0.6678505595340498,-5.197047714062936,-0.28935855164333596
7.276056833,-0.6252547040861893,-5.348897505166544,-0.3891096926607712
7.285982833,-0.5892709820651385,-5.465751047059175,-0.4949102917485791
7.295908833,-0.56034461091478,-5.545143597618235,-0.6057939900088535
7.305834833,-0.5388236254834424,-5.584986132149449,-0.7206801778089266
7.315760833,-0.5249535996576421,-5.583596299956712,-0.8383830938626908
7.325686833,-0.5188734210937005,-5.539724570968,-0.9576232249405129
7.335612833,-0.5206121380152063,-5.4525752633375015,-1.0770408955464437
7.345538833,-0.5300868868761219,-5.321822206948317,-1.195211860238783
7.355464833,-0.5471019051307418,-5.147618860953697,-1.3106646395577737
7.365390833,-0.5713486362305612,-4.930602763091583,-1.4218992806699697
7.375315833,-0.602406942911165,-4.6718942452170555,-1.5274071797902542
7.385241833,-0.6397474561366424,-4.373089406269922,-1.6256915774472294
7.395167833,-0.6827350965674488,-4.036247393510301,-1.7152883313628797
7.405093833,-0.7306338099369678,-3.6638721059440034,-1.7947865851797802
7.415019833,-0.7826125556480351,-3.2588884986909883,-1.8628489811252678
7.424945833,-0.8377525788979253,-2.824613730889551,-1.9182311041818554
7.434871833,-0.8950559811180168,-2.364723460068073,-1.9597998869450517
7.444797833,-0.9534555823612304,-1.8832136408301803,-1.9865507431267355
7.454723833,-1.0118260437578661,-1.38435823409147,-1.9976232322390164
7.464649833,-1.0689961897875573,-0.8726632750543551,-1.9923150891291503
7.474575833,-1.1237624404405686,-0.35281778466245856,-1.9700944803548173
7.484500833,-1.1749032338201189,0.170357958202733,-1.9306103736395663
7.494426833,-1.2211942915292027,0.6919662368279427,-1.8737009232572652
7.504352833,-1.2614245531357986,1.2070872344089156,-1.799399779974207
7.514278875,-1.2944125828918105,1.7108352887037468,-1.7079402314475605
7.524204875,-1.3190232325394715,2.1984154387837376,-1.5997570765253855
7.534130875,-1.3341843292047275,2.665179617836589,-1.4754861432685913
7.544056875,-1.3389031475082602,3.1066818290289246,-1.3359613770882799
7.553982875,-1.3322824204191743,3.5187316304488956,-1.1822094471331013
7.563908875,-1.3135356441418906,3.8974452516310376,-1.015441840598178
7.573834875,-1.282001438020049,4.239293669275045,-0.8370444347314205
7.583759875,-1.2371567298798214,4.541146984585002,-0.6485645581810853
7.593685875,-1.1786285488527306,4.800314470321686,-0.45169558167839213
7.603611875,-1.1062042202612072,5.014579692939713,-0.24825911542400073
7.613537875,-1.0198397703222193,5.18223016371693,-0.04018493566285154
7.623463875,-0.9196663631041018,5.302081030910657,0.17051118786877734
7.633389875,-0.8059946100052447,5.373492390506028,0.38175154204506495
7.643315875,-0.6793166145706291,5.396379864590766,0.5914221277534988
7.653241875,-0.5403056432965804,5.371218173787371,0.7973996080804584
7.663167875,-0.38981334529419354,5.299037514670531,0.9975791883571621
7.673093875,-0.22886447826601442,5.181412646047835,1.1899030324155084
7.683019875,-0.05864913311989532,5.02044468983845,1.3723887897183151
7.692944875,0.11948751653399757,4.818735762073633,1.5431577857346488
7.702870875,0.3040578810936311,4.579356665114214,1.7004624127229302
7.712796875,0.49344694744040585,4.3058079908524896,1.842712249980731
7.722722875,0.6859294760925585,4.00197510361622,1.9684984424830843
7.732648875,0.8796892517387452,3.6720775876126215,2.0766158759459166
7.742574875,1.0728402052258847,3.320613853390274,2.1660827056770486
7.752500875,1.2634491929977054,2.95230169692265,2.236156826360394
7.762426875,1.4495601858307072,2.5720156895596076,2.2863489096273986
7.772352875,1.629219582764335,2.184722343561751,2.3164316846102038
7.782278875,1.8005023294579117,1.7954140426895693,2.326445192039893
7.792204875,1.9615384840388805,1.40904274705042,2.3166978043367865
7.802129875,2.1105398383471994,1.0304544739517305,2.287762874543564
7.812055875,2.2458261682322673,0.6643255224824244,2.2404709592923644
7.821981875,2.3658506541655244,0.3151013528937758,2.1758976558375007
7.831907875,2.4692239866490957,-0.013061042181253937,2.095347195268314
7.841833875,2.554736655706701,-0.31634652524414886,2.0003320353377716
7.851759875,2.6213789254677655,-0.5913303091233101,1.8925487922106676
7.861685875,2.6683580158909206,-0.8350210124187107,1.773850940253409
7.871611875,2.6951120534500186,-1.04489782683514,1.646218790485457
7.881537875,2.7013204086026894,-1.2189414318851595,1.5117273237182656
7.891463875,2.686910106615734,-1.355658355412827,1.3725124950539676
7.901388875,2.6520580781555263,-1.45409852300262,1.2307366422128896
7.911314875,2.5971891113122414,-1.5138657764271635,1.088553633606496
7.921240875,2.522969486205539,-1.5351211887822833,0.9480743976469981
7.931166875,2.43029641817057,-1.518579081174949,0.811333479968048
7.941092875,2.320283588658215,-1.4654957595204006,0.6802572584620333
7.951018875,2.194243176108101,-1.3776511230335629,0.556634391155778
7.960944875,2.053664891931308,-1.2573234169520502,0.4420889880888835
7.970870875,1.9001925775095383,-1.1072574900362786,0.33805690843431085
7.980796875,1.7355989370525866,-0.9306269743853817,0.2457655017650023
7.990722875,1.5617589794427849,-0.7309908458819859,0.16621703768349896
8.000648875,1.3806227266704356,-0.5122448613351552,0.10017599809134162
8.010573875,1.1941877203402278,-0.27856840994466114,0.04816034145432873
8.020499875,1.0044718229066536,-0.03436736460898963,0.010436789173994394
8.030425875,0.8134867685138255,0.21578642663175684,-0.0129798715276401
8.040351875,0.6232128706798931,0.4672183081459796,-0.022323528967263542
8.050277875,0.43557524055084673,0.7152158790551219,-0.018069648385445416
8.060203875,0.2524218099871771,0.9550951254414324,-0.0009245020639691976
8.070129875,0.07550339009791016,1.1822667462956455,0.02818905374838313
8.080055875,-0.09354406800086466,1.392301762012023,0.06814899118157429
8.089981875,-0.2532149028106936,1.5809954791138412,0.11765440610415623
8.099907875,-0.4021468068906818,1.744428889855765,0.17524835240209724
8.109832875,-0.5391315143728583,1.8790266081402154,0.2393428390947573
8.119758875,-0.6631231374467792,1.9816104811983506,0.30824558892683546
8.129684875,-0.7732442116255736,2.0494480680381444,0.3801881389122028
8.139610875,-0.8687895412748117,2.080295240159077,0.45335485268273956
8.149536875,-0.949227965968455,2.0724322374362583,0.5259124119194587
8.159462875,-1.0142021930149925,2.0246926021909326,0.5960393597732514
8.169388875,-1.0635268598727832,1.9364845165056452,0.6619552823608644
8.179314875,-1.0971850005553245,1.8078041802305758,0.7219492336080034
8.189240875,-1.1153230920950343,1.6392409873019234,0.7744070318303631
8.199166875,-1.1182448518116126,1.4319743825542994,0.8178370813398239
8.209092875,-1.1064039458603425,1.1877624066899513,0.850894397130213
8.219017875,-1.080395756772372,0.9089220608377016,0.8724025337936839
8.228943875,-1.0409483438178397,0.5983017426086642,0.8813731400638839
8.238869875,-0.9889127148824196,0.2592461216304957,0.8770228773063978
8.248795875,-0.9252525111021692,-0.1044460670977969,0.8587874550757459
8.258721875,-0.8510331851235837,-0.488570730893896,0.8263325528910819
8.268647875,-0.7674107315634415,-0.888572954028807,0.779561419001976
8.278573875,-0.6756200068972922,-1.2996066042863783,0.7186189674127151
8.288499875,-0.5769626592798563,-1.7165981889145419,0.6438922350250736
8.298425875,-0.47279467978842893,-2.134314083520465,0.5560071110294018
8.308351875,-0.36451358700675723,-2.5474302162965676,0.45582130927976805
8.318276875,-0.2535452669010653,-2.95060326042611,0.3444136191212272
8.328202875,-0.14133050800731217,-3.3385423687423104,0.2230695375989395
8.338128875,-0.029311294606075858,-3.706080476314187,0.09326345181222054
8.348054875,0.08108305675861253,-4.048244198936863,-0.04336239957448828
8.357980875,0.18844981338480143,-4.360321369761677,-0.18502190363970084
8.367906875,0.2914266786491056,-4.637925284217232,-0.3298116601157278
8.377832875,0.38870545806190826,-4.87705476612047,-0.4757398044073785
8.387758875,0.47904541692166436,-5.07414922559026,-0.6207566503948869
8.397684875,0.5612862115663726,-5.226137951440714,-0.7627866969335064
8.407610875,0.6343602814552183,-5.330482965866313,-0.8997615088077603
8.417535875,0.697304591527278,-5.385214864667062,-1.0296529590577406
8.427461875,0.7492716100946846,-5.388961167286529,-1.1505063048571356
8.437387875,0.7895393962071667,-5.340966802410288,-1.2604725604966498
8.447313875,0.817520654751376,-5.241106453724534,-1.3578396251439697
8.457239875,0.8327706026675212,-5.089888586565439,-1.4410616193136376
8.467165875,0.8349934807130691,-4.888451071382358,-1.5087858860862455
8.477091875,0.824047545352078,-4.638548416409409,-1.5598771279164698
8.487017875,0.7999483853090945,-4.342530721607875,-1.593438184765894
8.496943875,0.7628704260137319,-4.003314570343291,-1.6088270196084171
8.506869875,0.7131465108670872,-3.624346185431245,-1.6056695636555884
8.5167995,0.6512654797384168,-3.209557291700654,-1.583868179603705
8.5267245,0.5778677016459779,-2.763314244889364,-1.5436056142990293
8.5366505,0.49373855884640755,-2.2903611005292377,-1.4853444185197684
8.5465765,0.39979992057487534,-1.795757399641303,-1.4098219015353104
8.5565025,0.2970996822932651,-1.2848115355734848,-1.3180407588255296
8.5664285,0.18679947660392915,-0.7630106373087133,-1.2112555646045446
8.5763545,0.07016068294659976,-0.2359479626115449,-1.0909553604370092
8.5862805,-0.05147112348137617,0.2907511553122526,-0.9588426021618469
8.5962065,-0.17668313132350322,0.8115037194257686,-0.8168087547491232
8.6061325,-0.3040134908124574,1.32084271599802,-0.6669068531622934
8.6160585,-0.431970550676333,1.8134888582555742,-0.5113213808472211
8.6259845,-0.5590528982900627,2.2844192965753454,-0.35233585931520833
8.6359095,-0.6837699284283619,2.728932202594366,-0.19229859164890314
8.6458355,-0.8046626319098753,3.14270619986774,-0.03358705288658564
8.6557615,-0.9203242699348076,3.521853704299226,0.12142853797975298
8.6656875,-1.0294205840981514,3.8629673492355634,0.27042190199767197
8.6756135,-1.1307091848701278,4.163158797751457,0.41114706505547804
8.6855395,-1.2230577607272506,4.420089383601563,0.5414738281186028
8.6954655,-1.3054607544181633,4.631992168804198,0.6594217766067706
8.7053915,-1.3770541617810128,4.797685156507344,0.7631922776921904
8.7153175,-1.4371281232979731,4.916575549526592,0.8511979334099639
8.7252435,-1.4851370010709186,4.988655095130021,0.9220889810398909
8.7351685,-1.5207066656544772,5.014486703603576,0.9747761629216094
8.7450945,-1.5436387587905178,4.995182670992001,1.0084496291574332
8.7550205,-1.5539117494187056,4.9323749742954535,1.0225934908601286
8.7649465,-1.5516786609535156,4.828178238405799,1.01699570886761
8.7748725,-1.537261417169637,4.6851460947512695,0.9917530815050165
8.7847985,-1.511141831475424,4.50622175734745,0.9472711825502347
8.7947245,-1.4739493490926758,4.294683728045785,0.8842591944063158
8.8046505,-1.426445742513219,4.054087606194457,0.8037196787557905
8.8145765,-1.3695070553516573,3.7882050187013196,0.7069334244599574
8.8245025,-1.304103184545191,3.5009607077339076,0.5954396069372111
