Time (s),X (m/s^2),Y (m/s^2),Z (m/s^2)
6.005771417,-0.4554763744805849,-0.41509417744222626,-0.4791581684893148
6.015697417,-0.45815907387828597,-0.8984767926436605,-0.22890547525875368
6.025623417,-0.45545982413900693,-1.3808089318092234,0.019131421213503922
6.035549417,-0.447104839047548,-1.8590735792691724,0.26287501851976386
6.045475417,-0.43287519867424273,-2.330285646808118,0.500316232466538
6.055401417,-0.4126121936213548,-2.7915214654757845,0.7295383154564475
6.065327417,-0.386222255830643,-3.2399470556071877,0.9487392959418056
6.075253417,-0.35368139359825446,-3.672844739413744,1.1562525959585779
6.085179417,-0.3150390469532265,-4.087637693056588,1.3505655283565774
6.095105417,-0.2704212790131574,-4.4819120794390015,1.530335427606636
6.105031417,-0.22003321902757528,-4.853436459404311,1.694403224158482
6.114957417,-0.16416067367633227,-5.200178247345034,1.8418043281672918
6.124883417,-0.10317082593041221,-5.520317056912509,1.971776740915503
6.134809417,-0.03751194711217461,-5.812254872510852,2.0837663596708174
6.144735417,0.0322879414999455,-6.074623079374352,2.1774294827720406
6.154661417,0.10562350749361797,-6.306286481855736,2.252632555027347
6.164587417,0.18181568294848557,-6.506344524695202,2.3094492184151774
6.174513417,0.260116402235615,-6.674129994324253,2.3481547512669865
6.184439417,0.33971451901200667,-6.8092055109701395,2.369217994957315
6.194365417,0.41974291150904725,-6.911358128641434,2.373290886342385
6.204291417,0.49928677460448434,-6.980592344241016,2.361195741160969
6.214217417,0.577393081071149,-7.017121785181636,2.3339104687759544
6.224143417,0.6530811709652818,-7.021359802915589,2.292551938077128
6.234069417,0.725354397018687,-6.993909153970983,2.23835775236393
6.243995417,0.793212716830681,-6.935550907619641,2.1726667229477763
6.253922417,0.8556660833903516,-6.8472326883459,2.096898354396368
6.263848417,0.9117484488398105,-6.730056348765119,2.0125316681437546
6.273774417,0.9605321662765482,-6.585265175784897,1.9210836972002554
6.283700417,1.0011425519721606,-6.4142307523293605,1.82408798517344
6.293626417,1.032772354518439,-6.218439616620336,1.723073417133632
6.303552417,1.054695866725815,-5.999479871967279,1.6195436934980783
6.313478417,1.0662824106642261,-5.759027901461287,1.5149577277076922
6.323404417,1.06700892724248,-5.498835337188924,1.4107112087340925
6.333330417,1.0564714096115713,-5.220716423237531,1.308119532427532
6.343256417,1.0343949330351496,-4.926535893126571,1.2084022809122574
6.353182417,1.0006420506058789,-4.618197453881775,1.1126694159749546
6.363108417,0.9552193434475946,-4.297632933171816,1.0219093431943123
6.373034417,0.8982819365129755,-3.966792107047466,0.9369789924001226
6.382960417,0.8301358179919743,-3.627633187454335,0.8585960450310917
6.392886417,0.7512378328192449,-3.2821139135956283,0.787333419095367
6.402812417,0.662193259681061,-2.93218316227361,0.7236160951979264
6.412738417,0.563750926651919,-2.579772972381448,0.6677203299380748
6.422664417,0.45679587301439545,-2.2267908693948053,0.6197752563297056
6.432590417,0.3423396235273473,-1.875112376538449,0.5797668188611875
6.442516417,0.22150820532993218,-1.5265736078729784,0.5475439387247076
6.452442417,0.0955281040560767,-1.1829638518061403,0.5228267562478136
6.462368417,-0.03428958030503038,-0.8460180691691032,0.505216753975905
6.472294417,-0.16656646201067082,-0.5174092470750131,0.49420852545265254
6.482220417,-0.2998753261221244,-0.19874056860809164,0.4892029217229596
6.492146417,-0.4327593336920861,0.1084626196893231,0.4895212801889803
6.502072417,-0.5637515913209004,0.40276103330919877,0.49442041924683333
6.511998417,-0.6913947111523102,0.6828098240631549,0.5031080686899987
6.521924417,-0.8142600090253836,0.9473670157449582,0.514758402888163
6.531850417,-0.930966017000307,1.195301865444374,0.5285273538749102
6.541776417,-1.0401960176949034,1.425602968478336,0.5435674054921175
6.551702417,-1.1407143391768029,1.6373858893497317,0.5590416056708696
6.561628417,-1.2313811800939556,1.8299000831480299,0.5741365775502333
6.571554417,-1.311165766463423,2.002534873506606,0.5880743563704844
6.581480417,-1.379157675796518,2.154824272204047,0.6001229235933225
6.591407417,-1.434576202450996,2.286450457191607,0.609605349978452
6.601333417,-1.476777680822662,2.397245765832545,0.6159074947308629
6.611259417,-1.505260729569573,2.487193104747657,0.618484238826706
6.621185417,-1.519669428715417,2.5564247235672366,0.6168642581454701
6.631111417,-1.5197944895136941,2.605219344241373,0.6106533670398472
6.641037417,-1.5055725210894801,2.6339976784014314,0.5995364862671465
6.650963417,-1.4770835349281088,2.6433164016343556,0.5832783111955868
6.660889417,-1.4345468561280401,2.6338606851090844,0.5617227766431663
6.670815417,-1.3783156285026386,2.6064354119132385,0.5347914326491093
6.680741417,-1.3088701100322666,2.5619552285582445,0.502480859522378
6.690667417,-1.2268099572668656,2.5014336030412925,0.46485925946452983
6.700593417,-1.1328456931507682,2.425971081460775,0.4220623656213355
6.710519417,-1.027789543134531,2.336742956567569,0.3742888082929648
6.720445417,-0.912545810514562,2.2349865835260427,0.32179507341714075
6.730371417,-0.7881009457421048,2.1219885985999976,0.26489018155920757
6.740297417,-0.6555134483187883,1.999072311460733,0.20393020796109299
6.750223417,-0.5159037252743917,1.867585545047738,0.13931275747940472
6.760149417,-0.37044401681019895,1.728889180741464,0.07147150325845203
6.770075417,-0.22034848577193183,1.5843466249698495,0.0008708925793731947
6.780001417,-0.06686355101171741,1.4353143459693178,-0.07199888747284483
6.789927417,0.08874147629461408,1.2831335442376701,-0.1466266125516384
6.799853417,0.24518342003507734,1.129122931834836,-0.22248435083828455
6.809779417,0.4011739257377049,0.974572519880226,-0.2990314168397065
6.819705417,0.5554278305509793,0.8207382614268953,-0.375717985458639
6.829631417,0.7066712661062365,0.6688373719019718,-0.4519884397902696
6.839557417,0.85364956302849,0.5200441489183742,-0.5272845570113921
6.849483417,0.995135037626967,0.37548613234940215,-0.6010486553945501
6.859409417,1.1299347443970948,0.23624047895068287,-0.6727268242200034
6.869335417,1.256898271238424,0.1033304687985877,-0.7417723326546546
6.879261417,1.3749256368250955,-0.022277891434387576,-0.8076492685201941
6.889188417,1.482975321585235,-0.1396791565488884,-0.869836408380343
6.899114417,1.5800724275211462,-0.24803157144928253,-0.927831282333616
6.909040417,1.6653169221937447,-0.34655996492758984,-0.9811543744781628
6.918966417,1.7378918842513151,-0.43455832676183814,-1.0293533856376258
6.928892417,1.7970716365590742,-0.5113919996601668,-1.0720074742978114
6.938818417,1.84222963161589,-0.5764994523190393,-1.1087313936622716
6.948744417,1.8728459456731488,-0.629393655307518,-1.1391794671073698
6.958670417,1.8885142437863842,-0.6696631477988669,-1.163049383721748
6.968596417,1.8889480923505224,-0.6969729395585462,-1.1800858278621524
6.978523542,1.8739865076051294,-0.7110654173469153,-1.1900839639140175
6.988449542,1.8435986303741327,-0.7117614089680938,-1.192892778416893
6.998375542,1.7978874099753392,-0.6989615094717891,-1.1884182486051846
7.008301542,1.7370921706728732,-0.6726477103458294,-1.1766262749874108
7.018227542,1.6615899287303415,-0.6328853119459812,-1.1575452959023491
7.028153542,1.57189533022802,-0.5798250539379287,-1.1312684944086306
7.038079542,1.4686590899547192,-0.5137053723221539,-1.0979555067806412
7.048005542,1.3526648298011317,-0.4348546819225508,-1.0578335429426833
7.057931542,1.2248242412949661,-0.3436935832391668,-1.0111978324354378
7.067857542,1.086170530995627,-0.24073689468582793,-0.9584113168445518
7.077783542,0.9378501480060167,-0.12659540929310825,-0.8999035210497156
7.087709542,0.7811128373868997,-0.0019772653984728833,-0.8361685487610171
7.097635542,0.6173001089340296,0.13231119656196877,-0.7677621598503449
7.107561542,0.4478322548724966,0.27536524093098896,-0.6952978969871909
7.117487542,0.2741940898794158,0.4261823773205999,-0.619442238461937
7.127413542,0.09791961980058825,0.5836640161222119,-0.5409087658586926
7.137339542,-0.07942413058881075,0.7466183181295563,-0.46045135248501395
7.147265542,-0.25625388591879583,0.9137644004146153,-0.37885640248724617
7.157191542,-0.4309872335629013,1.0837380326285369,-0.2969342001393362
7.167117542,-0.6020598309512075,1.2550989247413222,-0.2155094610868206
7.177043542,-0.767942460266044,1.426339673426883,-0.135411209837594
7.186969542,-0.9271576911370151,1.5958964006669434,-0.05746213925907381
7.196895542,-1.0782959207824327,1.7621610818823683,0.017532362247676805
7.206821542,-1.2200305711790538,1.9234955179750974,0.08879530298298839
7.216747542,-1.3511322350494541,2.078246853799517,0.15558906477724166
7.226674542,-1.4704815781972487,2.224764485802426,0.21722601698941224
7.236599542,-1.5770808260742355,2.3614181378624237,0.2730785209129067
7.246526542,-1.6700636871352763,2.486616822530919,0.3225880942494113
7.256452542,-1.7487035929058607,2.5988283515052757,0.36527353685699365
7.266378542,-1.8124201628187415,2.696599020476006,0.4007378609513991
7.276304542,-1.8607838294420727,2.778573073922216,0.4286739141564023
7.286230542,-1.8935185863067565,2.84351155637653,0.44886862603327243
7.296156542,-1.910502846733148,2.8903101761761354,0.46120584475768456
7.306082542,-1.9117684294748274,2.918015841166876,0.4656677595578644
7.316008542,-1.897497717574568,2.9258415673391225,0.4623349265244048
7.325934542,-1.8680190710251294,2.9131795053418053,0.45138493169025334
7.335860542,-1.82380060912549,2.8796118724577733,0.43308973857896577
7.345786542,-1.765442510150997,2.8249196177337588,0.40781178088671727
7.355712542,-1.6936680002139497,2.749088686438816,0.37599887612428556
7.365638542,-1.6093132189819495,2.652313788548151,0.3381780517189146
7.375564542,-1.5133161585569677,2.534999615849311,0.2949483882957731
7.385490542,-1.4067048748053577,2.3977594941918072,0.24697299292039113
7.395416542,-1.2905851681310208,2.2414115014592846,0.1949702172693203
7.405342542,-1.166127922729999,2.066972127707468,0.1397042337276391
7.415268542,-1.0345562802502883,1.8756476006096412,0.08197507947763291
7.425194542,-0.8971328079461164,1.6688230449618027,0.02260827775819877
7.435120542,-0.7551468060359919,1.4480496865716925,-0.037555851538500704
7.445046542,-0.6099018852789926,1.2150303444169412,-0.09767307206849382
7.454972542,-0.46270393227790396,0.9716034752806645,-0.15690616949578404
7.464898542,-0.3148495647133132,0.7197260361497483,-0.2144357992448437
7.474824542,-0.1676151613587277,0.46145540749187436,-0.2694710786960012
7.484750542,-0.02224653359796409,0.19893057710056858,-0.321259750339104
7.494676542,0.12005071234729818,-0.0656472713287796,-0.369097746452972
7.504602542,0.2581200893482272,-0.3300346753107561,-0.41233800342309945
7.514528542,0.39086240065776934,-0.5919662684184688,-0.45039840123281
7.524454542,0.5172431623836508,-0.8491755860400385,-0.48276873590357
7.534380542,0.6362992820568341,-1.0994162738047923,-0.5090166658660442
7.544306542,0.7471450078004417,-1.340483648833219,-0.5287926051402247
7.554232542,0.8489771705736002,-1.5702365262496853,-0.541833564541787
7.564159542,0.9410797480206426,-1.7866191736077754,-0.5479659632362591
7.574085542,1.0228277819682372,-1.9876831983399004,-0.5471074423926162
7.584011542,1.093690681380724,-2.171609113836989,-0.5392677085915621
7.593937542,1.1532349372534696,-2.336727275765729,-0.5245484219458721
7.603863542,1.2011262651697054,-2.4815378403425794,-0.5031421341739974
7.613789542,1.2371311766973263,-2.604729378607109,-0.47533028445480724
7.623715542,1.2611179656761775,-2.705195788848192,-0.44148027156297975
7.633641542,1.2730570829120664,-2.7820511783651027,-0.40204162404067284
7.643567542,1.2730208642203005,-2.8346424245341844,-0.35754127711937944
7.653493542,1.2611825714410623,-2.8625591645232156,-0.30857794600450894
7.663419542,1.2378147028860083,-2.865641001982599,-0.25581558048803543
7.673345542,1.2032865293882615,-2.8439817629997592,-0.19997590698617168
7.683271542,1.1580608174509586,-2.7979306867251528,-0.14183010329102183
7.693197542,1.1026897137496492,-2.728090495380899,-0.08218968898890817
7.703123542,1.0378097832513073,-2.635312344453107,-0.021896735391671647
7.713049542,0.96413621144539,-2.52068769799162,0.038186497817283435
7.722975542,0.8824561962023529,-2.3855372046302716,0.0971883965779723
7.732901542,0.7936215667165807,-2.231396672958418,0.15423919778876047
7.742827542,0.6985406776290277,-2.0600002677135283,0.20848246594616032
7.752753542,0.5981696369912195,-1.8732610756159342,0.25908673801108173
7.762679542,0.4935029377083719,-1.6732492230548486,0.30525723035653685
7.772605542,0.38556357404922376,-1.4621677671745432,0.3462474984204489
7.782531542,0.2753927388869899,-1.2423266259106385,0.3813709334912092
7.792457542,0.16403921480394792,-1.0161148578960948,0.4100119691412996
7.802383542,0.05254859308012552,-0.7859716447961169,0.43163685244178335
7.812309542,-0.058047523380307615,-0.5543563618238729,0.44580381538479713
7.822235542,-0.1667421581411057,-0.3237181450405266,0.45217246333763833
7.832161542,-0.27256325390126973,-0.09646537791206966,0.45051218159715045
7.842087542,-0.37458343288452634,0.12506447265756834,0.4407093484976439
7.852013542,-0.4719290499446787,0.3386342368519306,0.422773134402444
7.861939542,-0.5637883860857587,0.5421352050684167,0.39683966222471306
7.871865542,-0.6494188598344788,0.7336136447124412,0.3631743108848717
7.881791542,-0.7281531656831117,0.9112952533477198,0.32217196298718964
7.891717542,-0.7994042781806546,1.0736071500602409,0.27435503475462636
7.901643542,-0.8626692844766792,1.2191970339443359,0.22036917916116733
7.911569542,-0.9175320265839857,1.3469491738737245,0.16097661844606936
7.921495542,-0.9636645483081657,1.455996937648632,0.09704713446428385
7.931421542,-1.0008273524632965,1.545731621314569,0.029546818997037823
7.941347542,-1.0288684836223272,1.6158074002841873,-0.04047524426966021
7.951273542,-1.047721462266187,1.6661422916519795,-0.11190213397416755
7.961199542,-1.0574021095999073,1.696915090282954,-0.18356580196258282
7.971127833,-1.0580043193267488,1.7085583181015798,-0.2542650281684965
7.981053833,-1.0496948528265944,1.7017473041458324,-0.322784286452742
7.990980833,-1.0327072565086644,1.6773855890758462,-0.38791317727146635
8.000906833,-1.0073350240659713,1.636586917920645,-0.4484660780293946
8.010832833,-0.9739241511363945,1.5806541454437828,-0.5033016615242476
8.020758833,-0.932865252907882,1.5110554279190775,-0.5513419369515427
8.030684833,-0.8845854325755527,1.4293981133390397,-0.5915904770719725
8.040610833,-0.8295400973621517,1.3374007700657533,-0.6231495100940201
8.050536833,-0.7682049186038008,1.2368638133767167,-0.6452355762476372
8.060462833,-0.7010681244128717,1.1296392028341213,-0.6571934769020298
8.070388833,-0.6286232994543415,1.0175996935490668,-0.6585082774021599
8.080314833,-0.5513628486603228,0.9026081324099446,-0.6488151618561437
8.090240833,-0.4697722627886609,0.7864872953759108,-0.6279069770164968
8.100166833,-0.3843253054406861,0.6709907622190798,-0.5957393414958002
8.110092833,-0.2954802239479832,0.5577753190709998,-0.5524332344889451
8.120018833,-0.20367706981032851,0.4483753649225182,-0.49827501378921524
8.129944833,-0.10933619695514885,0.34417977194314286,-0.43371384547925435
8.139870833,-0.01285798635834251,0.24641160516759267,-0.3593565579516666
8.149796833,0.08537617853698985,0.1561110401794357,-0.2759599637527213
8.159722833,0.18500169165865865,0.07412172930428727,-0.18442072820846583
8.169648833,0.2856673036044714,0.0010807660813897202,-0.08576290636091084
8.179574833,0.38703059025348413,-0.06258770321649859,0.018876681722643802
8.189500833,0.48875245156585134,-0.11667526210792666,0.12826501668170603
8.199426833,0.5904908337196855,-0.16118851281199836,0.2410911179405292
8.209352833,0.6918939159364128,-0.19634503364115863,0.3559856431310828
8.219278833,0.7925930425195065,-0.22256619638676803,0.4715415042339219
8.229204833,0.8921957074722782,-0.2404670479460913,0.5863351341034724
8.239130833,0.990278912095468,-0.2508434608357687,0.6989480301183099
8.249056833,1.0863832147639207,-0.25465674911864206,0.8079882096217021
8.258982833,1.180007776554995,-0.2530159333758602,0.9121112302161796
8.268908833,1.2706066770066982,-0.24715782553433627,1.0100404493077146
8.278834833,1.3575867331447187,-0.23842509800328301,1.1005862147230294
8.288760833,1.4403070068004082,-0.22824250841153132,1.1826636897277596
8.298686833,1.5180801363417362,-0.21809147569856419,1.255309025626405
8.308612833,1.590175582972009,-0.20948324483043076,1.3176936110032684
8.318538833,1.6558248370124098,-0.20393092972839705,1.369136154320672
8.328464833,1.7142285812274123,-0.20292077729518437,1.409112396816806
8.338390833,1.7645657538747528,-0.20788304019683704,1.4372623023387667
8.348316833,1.80600439632146,-0.2201628771418169,1.4533946247895846
8.358242833,1.8377141139338116,-0.24099171860334234,1.4574888051356507
8.368168833,1.858879929671147,-0.27145955131193333,1.4496941900231637
8.378094833,1.8687172722312764,-0.31248859517566285,1.4303265882582175
8.388020833,1.866487818061945,-0.3648088729625925,1.3998621946192868
8.397946833,1.8515158972701342,-0.4289361963488505,1.3589289262869537
8.407872833,1.8232051696474671,-0.5051530964812516,1.3082952484645731
8.417798833,1.7810552705869973,-0.5934932027657861,1.2488566158024168
8.427724833,1.724678115305496,-0.6937295209622525,1.1816197182675077
8.437650833,1.6538135366243762,-0.8053669900335894,1.1076847828768206
8.447577833,1.5683439204912708,-0.9276396171277195,1.0282262359453924
8.457503833,1.468307496339639,-1.0595124082247622,0.9444720683520365
8.467429833,1.3539099368544878,-1.199688230233267,0.8576822688675205
8.477355833,1.2255339249489432,-1.3466196578834853,0.7691267018845506
8.487281833,1.0837463573881339,-1.49852577461079,0.6800628094445862
8.497207833,0.9293028771927516,-1.6534138103752283,0.5917135137277266
8.507133833,0.7631494615307931,-1.8091054110539833,0.5052456848485177
8.517059833,0.5864208369829385,-1.963267244036359,0.4217495222870411
8.526985833,0.4004355477640149,-2.113445554160662,0.3422191812774482
8.536911833,0.20668756302296407,-2.2571041953886644,0.2675349611371341
8.546837833,0.006834375711301117,-2.3916655790567436,0.19844736003354319
8.556763833,-0.19731838303133506,-2.5145539008992497,0.13556328643480747
8.566689833,-0.4038357143778985,-2.6232399373826274,0.07933469765925118
8.576615833,-0.6106752290704675,-2.715286638398501,0.030049908175863498
8.586541833,-0.815712073711444,-2.7883946896397553,-0.012172225682555202
8.596467833,-1.016766470229886,-2.8404471756314478,-0.04738508061033229
8.606393833,-1.2116334592091473,-2.869552444704816,-0.07581388412057143
8.616319833,-1.398114372618531,-2.874084261746482,-0.09785210927430664
8.626245833,-1.5740495080724493,-2.8527183366176905,-0.11405463438863478
8.636171833,-1.7373514376338275,-2.8044643423808684,-0.12512771262792322
8.646097833,-1.8860383604008821,-2.728692598132369,-0.13191585519570342
8.656023833,-2.0182668981675667,-2.625154696441661,-0.13538579175730298
8.665949833,-2.132363733420852,-2.4939975068242686,-0.13660773179621405
8.675875833,-2.226855495051534,-2.335770170398095,-0.13673420936858685
8.685801833,-2.300496309045571,-2.151423890987671,-0.13697684936080856
8.695727833,-2.3522924526053073,-1.9423045015977751,-0.13858144397396832
8.705653833,-2.3815235851299272,-1.7101379353600619,-0.1428017720034037
8.715579833,-2.387760080626363,-1.4570088642372503,-0.150872629642759
8.725505833,-2.3708760526033825,-1.185332897580077,-0.16398256993514437
8.735431833,-2.331057741081381,-0.8978228604296423,-0.18324686788077185
8.745357833,-2.268807017956731,-0.5974497943717579,-0.20968123729094615
8.755283833,-2.18493985821231,-0.28739943332336343,-0.2441768214564411
8.765209833,-2.0805797180451084,0.028975005116412066,-0.2874769627757393
8.775135833,-1.95714585468579,0.34820280954865185,-0.34015622963776593
8.785061833,-1.8163367136460764,0.6667476062596489,-0.40260214538697214
8.794987833,-1.6601085943476048,0.981060080252762,-0.4750000253296553
8.804913833,-1.4906498825833532,1.2876306420553654,-0.5573212824336523
