Time (s),Acceleration x (m/s^2),Acceleration y (m/s^2),Acceleration z (m/s^2)
4.004179232,-1.495514154,-9.84885788,-0.01196411345
4.008934701,-1.409372568,-9.839286804,0.0239282269
4.01369017,-1.320838094,-9.872786522,0.05742774159
4.018445586,-1.258624673,-9.87757206,0.05264209956
4.023201055,-1.194018483,-9.870393753,-0.0
4.027956472,-1.148554921,-9.863214493,-0.03589234129
4.03271194,-1.112662554,-9.834501266,-0.09571290761
4.037467357,-1.050449133,-9.824930191,-0.1339980662
4.042222826,-1.021735311,-9.772287369,-0.1651047617
4.046978242,-0.9834501147,-9.717252731,-0.1555334777
4.051733711,-0.9092726111,-9.710074425,-0.1531406492
4.056489128,-0.8614161611,-9.674181938,-0.1124626622
4.061244597,-0.813559711,-9.702896118,-0.06699903309
4.066000065,-0.7298108935,-9.7196455,0.009571290575
4.070755482,-0.6723831892,-9.750752449,0.08374879509
4.075510951,-0.650847733,-9.772287369,0.1387837082
4.080266367,-0.6245267391,-9.801001549,0.2297109663
4.085021836,-0.6173482537,-9.808179855,0.2991028428
4.089777253,-0.6436693072,-9.8201437,0.3684946895
4.094532722,-0.6364908218,-9.803394318,0.418743968
4.099288138,-0.6891329288,-9.812965393,0.4833501875
4.104043607,-0.7106683254,-9.789037704,0.4857429862
4.108799076,-0.7513462901,-9.779465675,0.5048855543
4.113554492,-0.7992027402,-9.760323524,0.4881358147
4.118309961,-0.813559711,-9.736394882,0.4761717021
4.123065378,-0.8398807645,-9.714859962,0.4522434771
4.127820847,-0.8757730722,-9.695717812,0.4235295951
4.132576263,-0.9212366939,-9.69811058,0.4235295951
4.137331732,-0.9786644578,-9.647860527,0.4211367965
4.142087201,-0.9978070259,-9.657432556,0.4019941986
4.146842617,-1.014556766,-9.671789169,0.4163511395
4.151598086,-1.004985452,-9.69811058,0.404387027
4.156353503,-1.012163997,-9.707681656,0.4283152521
4.161108972,-0.9978070259,-9.700503349,0.4283152521
4.165864388,-1.00737834,-9.710074425,0.4211367965
4.170619857,-0.9643075466,-9.729216576,0.394815743
4.175375326,-0.9523434043,-9.722038269,0.3708875179
4.180130742,-0.9355936646,-9.741181374,0.337387979
4.184886211,-0.9284151793,-9.726823807,0.3062812984
4.189641628,-0.8949156404,-9.767501831,0.2751746178
4.194397097,-0.8733802438,-9.789037704,0.2344966233
4.199152513,-0.8805587292,-9.793823242,0.1986042857
4.203907982,-0.866201818,-9.856036186,0.1603191197
4.208663451,-0.866201818,-9.856036186,0.1411765367
4.213418867,-0.8590233326,-9.868000984,0.1148554832
4.218174336,-0.8685946465,-9.856036186,0.1148554832
4.222929753,-0.8446664214,-9.834501266,0.1555334777
4.227685222,-0.8542376757,-9.844072342,0.1483550072
4.232440638,-0.8470591903,-9.853643417,0.1722832322
4.237196107,-0.8638089895,-9.841679573,0.1555334777
4.241951576,-0.8255237937,-9.84885788,0.1339980662
4.246706992,-0.8087740541,-9.856036186,0.1268195957
4.251462461,-0.7752745152,-9.860821724,0.06460621208
4.256217878,-0.7513462901,-9.841679573,0.03349951655
4.260973347,-0.7274180651,-9.863214493,-0.03349951655
4.265728763,-0.7058826685,-9.884750366,-0.09092725813
4.270484232,-0.7345965505,-9.908679008,-0.1651047617
4.275239701,-0.732203722,-9.913464546,-0.1986042857
4.279995117,-0.7537391186,-9.920642853,-0.2225325108
4.284750586,-0.7441678643,-9.913464546,-0.2249253243
4.289506003,-0.8087740541,-9.918250084,-0.2225325108
4.294261472,-0.8446664214,-9.891928673,-0.1651047617
4.299016888,-0.8997012973,-9.858428955,-0.09810572863
4.303772357,-0.9451649189,-9.810572624,-0.01674975827
4.308527826,-1.009771109,-9.757930756,0.06939185411
4.313283242,-1.026520967,-9.753145218,0.1818545163
4.318038711,-1.05523479,-9.717252731,0.2632105052
4.322794128,-1.060020447,-9.69093132,0.3014956415
4.327549597,-1.076770186,-9.650253296,0.3613162339
4.332305013,-1.081555843,-9.655039787,0.3684946895
4.337060482,-1.095912814,-9.664610863,0.380458802
4.341815951,-1.100698471,-9.659825325,0.3302095234
4.346571367,-1.115055323,-9.702896118,0.2919243574
4.351326836,-1.117448211,-9.7196455,0.2249253243
4.356082253,-1.141376376,-9.741181374,0.1651047617
4.360837722,-1.186840057,-9.786644936,0.09092725813
4.36559319,-1.234696507,-9.810572624,0.0765703246
4.370348607,-1.24666059,-9.846465111,0.04546362907
4.375104076,-1.258624673,-9.851250648,0.03349951655
4.379859492,-1.244267821,-9.901499748,0.04785645381
4.384614961,-1.217946768,-9.865608215,0.09092725813
4.389370378,-1.177268744,-9.851250648,0.1507478207
4.394125847,-1.115055323,-9.808179855,0.1962114573
4.398881315,-1.060020447,-9.7698946,0.2249253243
4.403636732,-1.012163997,-9.712467194,0.2536391914
4.408392201,-0.9595218897,-9.700503349,0.2632105052
4.413147617,-0.9236295223,-9.659825325,0.2608176768
4.417903086,-0.8303094506,-9.6693964,0.2321037948
4.422658555,-0.7896314859,-9.69093132,0.1914258152
4.427413972,-0.7513462901,-9.736394882,0.1555334777
4.43216944,-0.7178468108,-9.772287369,0.1052841991
4.436924857,-0.6843472719,-9.82732296,0.06221338734
4.441680326,-0.7178468108,-9.889535904,0.01914258115
4.446435795,-0.7441678643,-9.896714211,-0.01196411345
4.451191211,-0.8015955687,-9.920642853,-0.05503492057
4.45594668,-0.866201818,-9.920642853,-0.03589234129
4.460702097,-0.9188438654,-9.884750366,0.007178467698
4.465457565,-0.9451649189,-9.8201437,0.06460621208
4.470213034,-1.000199914,-9.793823242,0.09571290761
4.474968451,-1.021735311,-9.755537987,0.1698904037
4.47972392,-1.021735311,-9.74835968,0.2225325108
4.484479336,-1.036092162,-9.753145218,0.2656033039
4.489234805,-1.031306505,-9.714859962,0.2847459018
4.493990274,-1.028913736,-9.724431038,0.3062812984
4.49874569,-1.019342422,-9.731609344,0.2847459018
4.503501159,-1.033699393,-9.741181374,0.2775674164
4.508256576,-1.03848505,-9.762716293,0.2297109663
4.513012045,-1.021735311,-9.786644936,0.1603191197
4.517767513,-0.9954141974,-9.796216011,0.1004985496
4.52252293,-1.031306505,-9.801001549,0.04785645381
4.527278399,-1.028913736,-9.808179855,-0.007178467698
4.532033815,-1.045663476,-9.824930191,-0.06699903309
4.536789284,-1.060020447,-9.805787086,-0.08614161611
4.541544753,-1.112662554,-9.810572624,-0.08374879509
4.54630017,-1.136590719,-9.812965393,-0.04546362907
4.551055638,-1.158126116,-9.810572624,-0.002392822644
4.555811055,-1.205982566,-9.801001549,0.05742774159
4.560566524,-1.19880414,-9.777072906,0.1004985496
4.56532194,-1.208375454,-9.774680138,0.1842473447
4.570077409,-1.220339537,-9.774680138,0.1890329868
4.574832878,-1.210768223,-9.74835968,0.2129612118
4.579588295,-1.222732425,-9.753145218,0.1866401732
4.584343763,-1.19880414,-9.734002113,0.1531406492
4.589099232,-1.1820544,-9.738788605,0.09810572863
4.593854649,-1.143769264,-9.767501831,0.07417750359
4.598610117,-1.122233868,-9.784252167,0.05503492057
4.603365534,-1.098305583,-9.767501831,0.05264209956
4.608121003,-1.0863415,-9.789037704,0.05503492057
4.612876472,-1.081555843,-9.767501831,0.05024927482
4.617631888,-1.081555843,-9.765109062,0.04546362907
4.622387357,-1.100698471,-9.774680138,0.04546362907
4.627142774,-1.105484009,-9.765109062,0.06460621208
4.631898242,-1.081555843,-9.774680138,0.0933200866
4.636653711,-1.062413216,-9.750752449,0.1292124242
4.641409128,-1.026520967,-9.743574142,0.1627119333
4.646164597,-0.993021369,-9.736394882,0.2177468538
4.650920065,-0.9547362328,-9.736394882,0.2249253243
4.655675482,-0.9355936646,-9.753145218,0.2177468538
4.660430951,-0.9236295223,-9.734002113,0.1986042857
4.665186367,-0.9068797827,-9.743574142,0.1866401732
4.669941836,-0.9020941257,-9.74835968,0.1651047617
4.674697305,-0.9164510965,-9.757930756,0.1531406492
4.679452722,-0.9499505758,-9.784252167,0.1244267747
4.68420819,-0.9523434043,-9.796216011,0.06699903309
4.688963659,-0.9523434043,-9.801001549,0.02632104978
4.693719076,-1.000199914,-9.79860878,-0.009571290575
4.698474545,-1.00737834,-9.777072906,-0.08135596663
4.703229961,-1.009771109,-9.757930756,-0.1004985496
4.70798543,-1.016949654,-9.753145218,-0.08853443712
4.712740899,-1.026520967,-9.738788605,-0.1004985496
4.717496315,-1.062413216,-9.729216576,-0.05503492057
4.722251784,-1.10309124,-9.793823242,-0.03589234129
4.727007201,-1.10309124,-9.777072906,0.01914258115
4.73176267,-1.107876897,-9.815358162,0.05264209956
4.736518138,-1.129412293,-9.779465675,0.08135596663
4.741273555,-1.141376376,-9.810572624,0.1004985496
4.746029024,-1.162911773,-9.803394318,0.1387837082
4.750784492,-1.184447169,-9.793823242,0.1627119333
4.755539909,-1.203589797,-9.791430473,0.1938186288
4.760295378,-1.201196909,-9.7698946,0.2033899277
4.765050847,-1.201196909,-9.762716293,0.2249253243
4.769806263,-1.205982566,-9.736394882,0.2009970993
4.774561732,-1.189232826,-9.705288887,0.2057827413
4.779317149,-1.16769743,-9.678967476,0.1746760458
4.784072617,-1.136590719,-9.681360245,0.1483550072
4.788828086,-1.091127157,-9.693324089,0.1052841991
4.793583503,-1.036092162,-9.700503349,0.04067798331
4.798338972,-1.021735311,-9.736394882,0.004785645287
4.80309444,-0.993021369,-9.777072906,-0.05742774159
4.807849857,-0.9571290612,-9.791430473,-0.06939185411
4.812605326,-0.9355936646,-9.808179855,-0.06939185411
4.817360795,-0.9643075466,-9.841679573,-0.08135596663
4.822116211,-0.9954141974,-9.856036186,-0.05742774159
4.82687168,-1.024128079,-9.858428955,-0.009571290575
4.831627097,-1.045663476,-9.853643417,0.02871387079
4.836382565,-1.095912814,-9.822537422,0.06939185411
4.841138034,-1.110269666,-9.793823242,0.1220339537
4.845893451,-1.146162033,-9.74835968,0.1866401732
4.85064892,-1.131805062,-9.753145218,0.2129612118
4.855404388,-1.115055323,-9.7196455,0.2512463629
4.860159805,-1.110269666,-9.69811058,0.2584248483
4.864915274,-1.064806104,-9.714859962,0.2392822653
4.869670742,-1.033699393,-9.743574142,0.2105683982
4.874426159,-0.993021369,-9.745966911,0.1651047617
4.879181628,-1.000199914,-9.760323524,0.08853443712
4.883937097,-0.9595218897,-9.789037704,0.0239282269
4.888692513,-0.9810572863,-9.784252167,-0.05742774159
4.893447982,-1.000199914,-9.808179855,-0.1172483116
4.898203399,-1.024128079,-9.824930191,-0.1483550072
4.902958867,-1.045663476,-9.817750931,-0.1363908947
4.907714336,-1.062413216,-9.824930191,-0.1148554832
4.912469753,-1.079162955,-9.822537422,-0.05503492057
4.917225222,-1.069591761,-9.779465675,0.01914258115
4.92198069,-1.048056364,-9.791430473,0.1076770201
4.926736107,-1.016949654,-9.784252167,0.1555334777
4.931491576,-0.9738788009,-9.817750931,0.1962114573
4.936247045,-0.9834501147,-9.796216011,0.2344966233
4.941002461,-0.9451649189,-9.822537422,0.2153540403
4.94575793,-0.9523434043,-9.805787086,0.2177468538
4.950513399,-0.9882357717,-9.791430473,0.1890329868
4.955268815,-1.002592683,-9.781859398,0.1507478207
4.960024284,-1.024128079,-9.772287369,0.09810572863
4.964779753,-1.033699393,-9.762716293,0.05264209956
4.96953517,-1.060020447,-9.7698946,-0.01196411345
4.974290638,-1.057627559,-9.753145218,-0.04546362907
4.979046055,-1.05523479,-9.74835968,-0.04785645381
4.983801524,-1.031306505,-9.722038269,-0.05503492057
4.988556992,-1.014556766,-9.762716293,-0.02153540403
4.993312409,-0.9690931439,-9.767501831,0.01674975827
4.998067878,-0.9332008362,-9.779465675,0.03349951655
5.002823347,-0.9092726111,-9.793823242,0.05742774159
5.007578763,-0.9140582681,-9.79860878,0.08374879509
5.012334232,-0.8949156404,-9.815358162,0.07178468257
5.017089701,-0.8925228715,-9.808179855,0.05982056633
5.021845117,-0.9044869542,-9.829715729,0.02871387079
5.026600586,-0.9523434043,-9.824930191,-0.002392822644
5.031356055,-0.9978070259,-9.817750931,-0.03589234129
5.036111472,-1.036092162,-9.801001549,-0.05982056633
5.04086694,-1.079162955,-9.784252167,-0.07896314561
5.045622409,-1.0863415,-9.801001549,-0.06460621208
5.050377826,-1.100698471,-9.784252167,-0.04546362907
5.055133295,-1.10309124,-9.791430473,0.007178467698
5.059888763,-1.095912814,-9.781859398,0.04546362907
5.06464418,-1.083948612,-9.793823242,0.07896314561
5.069399649,-1.014556766,-9.803394318,0.09810572863
5.074155117,-0.9810572863,-9.808179855,0.1076770201
5.078910534,-0.9619147182,-9.801001549,0.09571290761
5.083666003,-0.9140582681,-9.796216011,0.07178468257
5.088421472,-0.9236295223,-9.767501831,0.05503492057
5.093176888,-0.9188438654,-9.741181374,0.0382851623
5.097932357,-0.9403793216,-9.717252731,0.04067798331
5.102687826,-0.9355936646,-9.712467194,0.05503492057
5.107443242,-0.9332008362,-9.714859962,0.06939185411
5.112198711,-0.9355936646,-9.722038269,0.08614161611
5.11695418,-0.9475577474,-9.726823807,0.09810572863
5.121709597,-0.9260223508,-9.745966911,0.1076770201
5.126465065,-0.9308080077,-9.757930756,0.1220339537
5.131220534,-0.8949156404,-9.786644936,0.1100698411
5.135975951,-0.8973084688,-9.810572624,0.1387837082
5.14073142,-0.8973084688,-9.824930191,0.1483550072
5.145486888,-0.8638089895,-9.829715729,0.1459621787
5.150242305,-0.8949156404,-9.803394318,0.1172483116
5.154997774,-0.9212366939,-9.801001549,0.0933200866
5.159753242,-0.9547362328,-9.7698946,0.05742774159
5.164508659,-0.9762716293,-9.777072906,0.01196411345
5.169264128,-0.9834501147,-9.779465675,-0.002392822644
5.174019597,-1.026520967,-9.760323524,-0.04307080805
5.178775013,-1.076770186,-9.767501831,-0.05503492057
5.183530482,-1.093519926,-9.765109062,-0.05982056633
5.188285951,-1.115055323,-9.753145218,-0.04785645381
5.193041367,-1.088734269,-9.757930756,-0.0382851623
5.197796836,-1.124626637,-9.786644936,-0.01196411345
5.202552305,-1.117448211,-9.781859398,0.02632104978
5.207307722,-1.110269666,-9.789037704,0.0765703246
5.21206319,-1.10309124,-9.772287369,0.1220339537
5.216818659,-1.067198873,-9.741181374,0.1866401732
5.221574076,-1.019342422,-9.757930756,0.1890329868
5.226329545,-0.9810572863,-9.767501831,0.2009970993
5.231085013,-0.9379864931,-9.757930756,0.1339980662
5.23584043,-0.8973084688,-9.755537987,0.06221338734
5.240595899,-0.8877372146,-9.772287369,-0.04546362907
5.245351367,-0.8925228715,-9.777072906,-0.1316052526
5.250106836,-0.9236295223,-9.767501831,-0.2081755698
5.254862253,-0.9547362328,-9.777072906,-0.2799602449
5.259617722,-1.012163997,-9.772287369,-0.2919243574
5.26437319,-1.03848505,-9.781859398,-0.2608176768
5.269128607,-1.067198873,-9.789037704,-0.2344966233
5.273884076,-1.079162955,-9.789037704,-0.1579262912
5.278639545,-1.081555843,-9.762716293,-0.0765703246
5.283394961,-1.060020447,-9.729216576,-0.007178467698
5.28815043,-1.040877819,-9.726823807,0.05264209956
5.292905899,-0.9858429432,-9.738788605,0.08374879509
5.297661315,-1.004985452,-9.712467194,0.1292124242
5.302416784,-0.9714859724,-9.755537987,0.1459621787
5.307172253,-0.9571290612,-9.74835968,0.1316052526
5.31192767,-0.9308080077,-9.760323524,0.09810572863
5.316683138,-0.9212366939,-9.7698946,0.02632104978
5.321438607,-0.9260223508,-9.781859398,-0.05264209956
5.326194024,-0.9164510965,-9.762716293,-0.1196411327
5.330949492,-0.9260223508,-9.755537987,-0.1746760458
5.335704961,-0.9355936646,-9.74835968,-0.2081755698
5.340460378,-0.9260223508,-9.750752449,-0.2057827413
5.345215847,-0.9547362328,-9.760323524,-0.1770688742
5.349971315,-0.9643075466,-9.774680138,-0.1148554832
5.354726732,-0.9499505758,-9.789037704,-0.0765703246
5.359482201,-0.9619147182,-9.777072906,-0.02153540403
5.36423767,-0.9690931439,-9.793823242,0.03349951655
5.368993138,-0.9595218897,-9.796216011,0.06460621208
5.373748555,-0.9858429432,-9.808179855,0.08135596663
5.378504024,-0.993021369,-9.803394318,0.07417750359
5.383259492,-1.004985452,-9.791430473,0.08614161611
5.388014909,-0.9978070259,-9.765109062,0.07417750359
5.392770378,-0.9786644578,-9.765109062,0.03349951655
5.397525847,-0.9714859724,-9.7698946,-0.002392822644
5.402281263,-0.9643075466,-9.781859398,-0.06460621208
5.407036732,-0.9308080077,-9.7698946,-0.09571290761
5.411792201,-0.9379864931,-9.762716293,-0.1292124242
5.41654767,-0.9379864931,-9.755537987,-0.1651047617
5.421303086,-0.9499505758,-9.774680138,-0.1698904037
5.426058555,-0.9403793216,-9.753145218,-0.1531406492
5.430814024,-0.9379864931,-9.729216576,-0.1363908947
5.43556944,-0.9475577474,-9.710074425,-0.08374879509
5.440324909,-0.9499505758,-9.717252731,-0.0239282269
5.445080378,-0.9355936646,-9.695717812,0.03349951655
5.449835795,-0.9236295223,-9.693324089,0.08853443712
5.454591263,-0.9332008362,-9.712467194,0.1004985496
5.459346732,-0.9403793216,-9.743574142,0.09810572863
5.464102149,-0.9451649189,-9.760323524,0.1004985496
5.468857617,-0.9571290612,-9.765109062,0.09092725813
5.473613086,-0.9906286001,-9.793823242,0.0765703246
5.478368555,-1.021735311,-9.79860878,0.05982056633
5.483123972,-1.045663476,-9.793823242,0.03349951655
5.48787944,-1.093519926,-9.750752449,0.01914258115
5.492634909,-1.091127157,-9.724431038,-0.01196411345
5.497390326,-1.13419795,-9.69093132,-0.0382851623
5.502145795,-1.153340459,-9.702896118,-0.06699903309
5.506901263,-1.143769264,-9.683753014,-0.08374879509
5.51165668,-1.129412293,-9.702896118,-0.1052841991
5.516412149,-1.079162955,-9.702896118,-0.1220339537
5.521167617,-1.019342422,-9.743574142,-0.1316052526
5.525923086,-0.9595218897,-9.7698946,-0.1244267747
5.530678503,-0.9308080077,-9.777072906,-0.1124626622
5.535433972,-0.866201818,-9.779465675,-0.09571290761
5.54018944,-0.8853443861,-9.779465675,-0.1052841991
5.544944857,-0.8949156404,-9.765109062,-0.1052841991
5.549700326,-0.8805587292,-9.743574142,-0.07896314561
5.554455795,-0.9116654396,-9.760323524,-0.06221338734
5.559211211,-0.9595218897,-9.724431038,-0.04546362907
5.56396668,-0.993021369,-9.702896118,-0.01914258115
5.568722149,-1.014556766,-9.69811058,0.01196411345
5.573477617,-1.05523479,-9.693324089,0.04307080805
5.578233034,-1.076770186,-9.700503349,0.04307080805
5.582988503,-1.117448211,-9.729216576,0.05982056633
5.587743972,-1.124626637,-9.736394882,0.06460621208
5.592499388,-1.15094769,-9.7698946,0.05024927482
5.597254857,-1.165304661,-9.789037704,0.0382851623
5.602010326,-1.162911773,-9.791430473,-0.01914258115
5.606765742,-1.186840057,-9.784252167,-0.05024927482
5.611521211,-1.179661512,-9.796216011,-0.07417750359
5.61627668,-1.208375454,-9.815358162,-0.07896314561
5.621032149,-1.194018483,-9.844072342,-0.07178468257
5.625787565,-1.19880414,-9.834501266,-0.07896314561
5.630543034,-1.186840057,-9.801001549,-0.05982056633
5.635298503,-1.160519004,-9.786644936,-0.05264209956
5.640053972,-1.15094769,-9.793823242,-0.04067798331
5.644809388,-1.100698471,-9.801001549,-0.02153540403
5.649564857,-1.074377418,-9.810572624,0.02871387079
5.654320326,-1.076770186,-9.810572624,0.06221338734
5.659075742,-1.033699393,-9.815358162,0.08374879509
5.663831211,-0.9738788009,-9.815358162,0.1292124242
5.66858668,-0.9284151793,-9.817750931,0.1292124242
5.673342097,-0.8973084688,-9.812965393,0.1363908947
5.678097565,-0.866201818,-9.801001549,0.1292124242
5.682853034,-0.8566305041,-9.808179855,0.1052841991
5.687608503,-0.8494520187,-9.79860878,0.1076770201
5.69236392,-0.8207381964,-9.784252167,0.07896314561
5.697119388,-0.8398807645,-9.805787086,0.07417750359
5.701874857,-0.8111668825,-9.789037704,0.0143569354
5.706630274,-0.8327022791,-9.810572624,-0.02871387079
5.711385742,-0.8327022791,-9.793823242,-0.07178468257
5.716141211,-0.8350951076,-9.824930191,-0.1100698411
5.72089668,-0.8590233326,-9.839286804,-0.1483550072
5.725652097,-0.8709874153,-9.836894035,-0.1411765367
5.730407565,-0.9212366939,-9.851250648,-0.1411765367
5.735163034,-0.9523434043,-9.834501266,-0.09810572863
5.739918451,-0.9762716293,-9.812965393,-0.03349951655
5.74467392,-1.004985452,-9.777072906,0.02871387079
5.749429388,-1.019342422,-9.789037704,0.09571290761
5.754184805,-1.021735311,-9.774680138,0.1483550072
5.758940274,-1.031306505,-9.793823242,0.2057827413
5.763695742,-1.012163997,-9.774680138,0.2177468538
5.768451211,-0.9954141974,-9.757930756,0.2177468538
5.773206628,-0.9619147182,-9.762716293,0.2033899277
5.777962097,-0.9523434043,-9.781859398,0.1914258152
5.782717565,-0.8973084688,-9.765109062,0.1507478207
5.787473034,-0.8757730722,-9.779465675,0.1076770201
5.792228451,-0.8638089895,-9.784252167,0.06460621208
5.79698392,-0.8494520187,-9.767501831,0.03589234129
5.801739388,-0.9020941257,-9.808179855,0.007178467698
5.806494857,-0.9212366939,-9.829715729,-0.01914258115
5.811250274,-0.9523434043,-9.839286804,-0.01914258115
5.816005742,-0.9978070259,-9.841679573,0.0143569354
5.820761211,-1.004985452,-9.839286804,0.04067798331
