Time (s),Acceleration x (m/s^2),Acceleration y (m/s^2),Acceleration z (m/s^2)
10.000855,-3.986442566,-71.983284,15.4552412
10.00560943,-4.792823792,-66.32904053,12.74895859
10.01036386,-5.697310925,-54.59703445,7.982456207
10.01511828,-4.685146809,-42.41517258,2.120040894
10.01987266,-3.383451223,-32.69552994,-6.419943333
10.02462708,-0.8327022791,-25.38306236,-11.39222908
10.02938151,1.588834286,-19.91307068,-12.41874981
10.03413589,3.732803345,-15.87159252,-11.63629627
10.03889031,4.977071285,-12.92602825,-9.990034103
10.04364474,4.876572609,-10.94955635,-7.807780266
10.04839912,4.094119549,-9.430113792,-6.089733601
10.05315354,3.077169895,-8.231309891,-4.457828522
10.05790797,2.002792597,-7.446464062,-3.010170937
10.06266234,0.9954141974,-6.778866768,-2.239681959
10.06741677,0.03349951655,-6.250052929,-1.189232826
10.0721712,-0.8111668825,-5.769095421,-0.3780659735
10.07692557,-1.517049551,-5.381458282,0.6125625968
10.08168,-2.086541414,-5.015356064,1.540977836
10.08643443,-2.758924484,-4.666004181,2.414358139
10.0911888,-3.476771355,-4.307080746,3.247060299
10.09594323,-4.249652863,-3.955335855,3.991228104
10.10069766,-4.79521656,-3.658625841,4.577469826
10.10545203,-5.13021183,-3.249453068,5.228317261
10.11020646,-5.632704735,-2.895315409,5.340780258
10.11496089,-5.991627693,-2.62253356,5.228317261
10.11971526,-6.056233883,-2.234896421,5.25942421
10.12446969,-5.893522263,-1.720439434,5.546562672
10.12922406,-5.699703693,-1.220339537,5.553741455
10.13397849,-5.570491314,-0.7417750359,5.328815937
10.13873292,-5.520241737,-0.3302095234,4.857429981
10.14348734,-5.402993679,0.08135596663,4.204189301
10.14824172,-5.123033047,0.5144568682,3.579662561
10.15299615,-4.871787071,0.8350951076,2.914458036
10.15775052,-4.467400074,1.05523479,2.244467735
10.16250495,-4.015156269,1.253839016,1.529013634
10.16725938,-3.723232031,1.380658627,1.105484009
10.17201375,-3.64426899,1.663011789,0.394815743
10.17676818,-4.034298897,2.682354212,-4.97467804
10.18152261,-4.053441525,5.230710506,-12.0167551
10.18627698,-4.151547432,6.415157318,-18.30748558
10.19103141,-3.287738323,6.98704195,-20.0039978
10.19578583,-2.033899307,7.508677483,-21.18126678
10.20054021,-0.409172684,8.123632431,-21.71007919
10.20529464,2.088934183,8.405985832,-22.25803566
10.21004906,4.656432629,8.327022552,-19.26700783
10.21480344,7.281359196,7.831708431,-11.42812061
10.21955786,10.46142101,6.484549522,-2.23728919
10.22431224,13.03370476,3.979264021,5.2737813
10.22906667,13.67258835,0.4689932466,10.11924744
10.23382109,12.60060406,-2.033899307,13.01934814
10.23857547,11.16491032,-3.457628727,14.44307709
10.2433299,9.260223389,-4.319045067,14.3066864
10.24808432,7.247859955,-4.486542225,13.23230934
10.2528387,5.268995285,-4.309473515,11.63868904
10.25759313,3.857230186,-4.163511276,10.2652092
10.2623475,2.54117775,-3.88594389,8.611768723
10.26710193,1.629512191,-3.584448338,6.903293133
10.27185636,0.9786644578,-3.357130051,5.120640278
10.27661073,0.3876372576,-3.357130051,2.780459881
10.28136516,-0.5072783828,-7.049255371,-28.08695221
10.28611958,-0.2967100143,-6.053841114,-18.52044678
10.29087396,0.4929214716,-4.680361271,-5.192425251
10.29562839,0.3445664644,-4.551148891,1.464407444
10.30038276,-0.8829515576,-7.262216568,4.460221291
10.30513719,-1.969292998,-16.38604927,4.828716278
10.30989162,-0.5144568682,-26.84746933,0.3302095234
10.31464599,0.1555334777,-32.17628479,0.3254238665
10.31940042,-1.708475351,-33.51148224,1.10309124
10.32415484,-4.419543266,-35.27499008,9.834501266
10.32890922,-8.097311974,-33.03052521,7.975277901
10.33366365,-10.8682003,-26.74936485,5.855237007
10.33841802,-11.19841003,-20.68355942,3.522234917
10.34317245,-10.26042366,-16.60858154,3.823730469
10.34792682,-9.052047729,-14.29711533,3.464807272
10.35268125,-8.530412674,-13.51226902,0.3349951804
10.35743568,-8.312665939,-13.98844147,-2.086541414
10.36219005,-7.482356548,-14.9718914,-2.900100946
10.36694448,-5.960521221,-16.79282951,-2.98863554
10.37169891,-4.058227062,-19.01097679,-2.723032236
10.37645328,-1.926222205,-21.63350868,-2.268395901
10.38120771,0.06221338734,-24.63650131,-1.514656782
10.38596208,1.612762451,-27.52224541,-0.2009970993
10.39071651,3.017349243,-29.92703247,3.897907972
10.39547094,3.617947817,-31.84129143,6.498906136
10.40022531,4.048655987,-32.5280304,7.27178812
10.40497974,4.417150497,-32.41556931,7.625925541
10.40973412,4.962714195,-32.01118088,7.92742157
10.41448854,5.453242779,-31.04926682,8.298309326
10.41924297,5.72123909,-29.27139854,8.080561638
10.42399734,5.206781864,-27.26142883,6.881757736
10.42875177,4.118047714,-25.38306236,5.266602516
10.43350615,3.687339783,-24.24168587,4.122833252
10.43826057,3.503092289,-23.41616249,2.761317253
10.44301495,4.551148891,-23.17687988,1.074377418
10.44776938,5.862415314,-22.94716835,-2.069791555
10.4525238,6.802794933,-23.04288292,-8.276773453
10.45727818,8.470592499,-23.07159615,-18.32662773
10.46203261,10.24845982,-22.29871368,-26.18226624
10.46678698,11.55494022,-20.42274094,-25.97887611
10.47154141,12.02154064,-18.53719711,-17.06321907
10.47629583,11.7272234,-16.87657738,-5.699703693
10.48105021,11.73440266,-15.3355999,2.189432621
10.48580464,12.60060406,-13.89272785,6.558726788
10.49055901,12.73699474,-12.26321602,7.355536938
10.49531344,11.67936707,-10.42074299,6.003592014
10.50006781,9.939785004,-8.480163574,3.282952785
10.50482224,8.525627136,-6.896114826,-0.09092725813
10.50957662,7.688138962,-5.522634506,-4.046263218
10.51433104,7.647460938,-4.393222332,-8.650053978
10.51908547,8.267202377,-3.689732552,-12.30628681
10.52383984,9.530612946,-3.450450182,-12.05504036
10.52859427,10.59541893,-3.455235958,-8.640482903
10.53334865,11.13858986,-3.249453068,-6.108876228
10.53810307,11.16969585,-2.756531715,-3.921836376
10.54285745,10.68156052,-1.986042738,-2.603390932
10.54761188,10.67677498,-1.196411371,-1.761117458
10.5523663,11.16251755,-0.4833501875,-1.050449133
10.55712068,11.40897846,0.2177468538,-0.8973084688
10.5618751,11.39940739,0.7274180651,-1.225125194
10.56662948,11.61476135,1.261017561,-1.849651933
10.57138391,11.89950657,1.978864312,-2.969492912
10.57613828,12.4426775,2.873780012,-4.551148891
10.58089271,12.78724384,3.830909014,-5.950950146
10.58564708,12.91884899,4.747360229,-5.8983078
10.59040151,13.02652645,5.484349728,-5.357530117
10.59515594,13.03609753,5.862415314,-4.756931305
10.59991031,12.31585789,5.833701611,-4.307080746
10.60466474,11.2008028,5.730810165,-4.285545349
10.60941912,9.894321442,5.596812248,-4.366901398
10.61417354,8.346165657,5.328815937,-4.335794449
10.61892792,5.984449387,4.543970108,-3.610769272
10.62368234,3.893122435,3.541377544,-2.761317253
10.62843672,2.170290232,2.560320139,-2.306680918
10.63319115,0.8303094506,1.777867198,-2.072184324
10.63794552,-0.1507478207,1.1820544,-1.940579176
10.64269995,-0.7680960894,0.7633104324,-1.634297848
10.64745432,-0.9762716293,0.4857429862,-1.069591761
10.65220875,-0.9643075466,0.2847459018,-0.5144568682
10.65696313,-0.8231309652,0.08853443712,0.01914258115
10.66171755,-0.4307080805,-0.2177468538,0.4450650215
10.66647193,0.07178468257,-0.5910272002,0.7537391186
10.67122636,0.9284151793,-1.095912814,1.296909928
10.67598073,1.852044702,-1.93340075,1.785045743
10.68073516,2.962314367,-2.90967226,2.318645239
10.68548958,4.127619267,-4.096512318,2.52682066
10.69024396,5.367101192,-5.776273727,2.218146563
10.69499839,7.166503906,-8.350951195,1.653440475
10.69975276,11.08833981,-13.9860487,-0.6005984545
10.70450719,17.70928001,-23.42573357,-4.015156269
10.70926156,23.45444679,-34.59064484,-9.662218094
10.71401599,26.35454941,-46.51647186,-12.37328625
10.71877037,24.48814774,-57.49235153,-6.058627129
10.72352479,17.61596107,-64.93402863,3.783052683
10.72827917,9.896714211,-67.74080658,9.702896118
10.73303359,3.292523861,-69.92545319,10.60259724
10.73778797,-3.536591768,-71.19126129,11.76550865
10.7425424,-10.33220863,-71.39225769,12.21057415
10.74729677,-13.93340588,-67.64031219,7.874779224
10.7520512,-14.66561031,-58.60261917,4.264009953
10.75680557,-12.69631672,-46.91607285,1.239482164
10.76156,-9.729216576,-36.62454224,-2.086541414
10.76631443,-6.278766632,-28.6253376,-4.512863636
10.7710688,-3.481556892,-22.42314148,-5.151747227
10.77582318,-1.050449133,-17.62313843,-5.24506712
10.78057761,0.8829515576,-13.95015621,-5.347958565
10.78533198,2.273181438,-11.01416302,-5.316852093
10.79008641,3.034099102,-8.946763992,-5.417350292
10.79484078,3.440878868,-7.4010005,-5.312066078
10.79959521,3.582055569,-6.209374905,-4.776073933
10.80434958,3.318845034,-5.228317261,-3.778266907
10.80910401,2.885744095,-4.433900356,-2.66799736
10.81385839,2.196611166,-3.763910055,-1.605584025
10.81861281,1.308874011,-3.189632654,-0.679561615
10.82336724,0.2464607358,-2.71824646,0.4905286431
10.82812162,-0.9595218897,-2.467000246,1.35912323
10.83287599,-2.009970903,-2.325823545,2.160718918
10.83763042,-2.859423161,-2.232503414,3.163311481
10.84238479,-3.407379389,-2.136790514,4.110869408
10.84713922,-3.806980848,-2.048256159,4.517649174
10.85189359,-4.120440483,-1.859223247,4.675575256
10.85664802,-4.776073933,-1.651047587,4.706682205
10.8614024,-5.123033047,-1.280160069,4.847858906
10.86615682,-5.216353416,-0.7657032609,5.108676434
10.8709112,-5.242674351,-0.2464607358,5.369493961
10.87566563,-5.077569485,0.2703889608,5.398207664
10.88042,-4.864608288,0.7920243144,5.056034088
10.88517443,-4.60379076,1.160519004,4.249652863
10.8899288,-4.335794449,1.435693622,3.342773199
10.89468323,-4.096512318,1.615155339,2.54117775
10.89943761,-3.847658873,1.753939033,1.811366796
10.90419203,-3.699303865,1.856830359,1.225125194
10.90894641,-3.763910055,2.14157629,-0.06460621208
10.91370078,-5.364708424,3.811766386,-12.48096275
10.91845521,-5.355136871,6.515655994,-18.46541214
10.92320958,-4.161118507,7.580461979,-17.96770477
10.92796401,-3.067598581,7.810173035,-17.22832298
10.93271839,-1.85443759,8.137989998,-16.66840172
10.93747281,0.004785645287,8.492127419,-16.2137661
10.94222719,2.163111687,8.623732567,-14.77328682
10.94698162,4.259224415,8.324629784,-10.60259724
10.95173599,6.565905571,7.5421772,-4.256831646
10.95649042,8.877371788,5.855237007,1.031306505
10.96124479,10.87777138,3.282952785,3.998406649
10.96599922,11.95214939,0.6005984545,5.711667538
10.97075359,11.54536915,-1.555334687,7.288537979
10.97550797,10.29153061,-2.792423964,8.95154953
10.9802624,8.827122688,-3.237488985,9.980463028
10.98501677,7.319644451,-3.361915827,9.779465675
10.9897712,5.938985825,-3.393022537,9.049654961
10.99452557,4.469792843,-3.347558975,8.343772888
10.99928,2.785245657,-3.170490026,7.563712597
11.00403438,1.572084427,-2.859423161,6.369693756
11.0087888,0.6077769399,-2.531606436,5.18046093
11.01354318,-0.2871387303,-2.258824587,3.759124279
11.0182976,-0.9260223508,-2.172683001,1.768295884
11.02305198,-4.261617184,-5.11585474,-30.36731148
11.02780636,-3.189632654,-4.66839695,-22.48296165
11.03256078,-1.071984529,-3.220739365,-5.300102234
11.03731516,-0.05503492057,-3.206382275,1.402194023
11.04206958,-0.03349951655,-3.541377544,3.254238844
11.04682396,-0.5599204898,-4.208974838,4.558327198
11.05157839,-2.297109842,-7.444071293,6.099305153
11.05633276,-2.792423964,-17.66860199,4.677968502
11.06108714,-0.1292124242,-28.39801979,1.574477315
11.06584156,0.3182454109,-33.91826248,0.2225325108
11.07059594,-0.5048855543,-36.14119339,0.760917604
11.07535036,-2.916850805,-36.62693787,4.216153622
11.08010474,-5.630311489,-36.85425568,10.17428207
11.08485917,-7.970492363,-35.44727325,11.15533924
11.08961354,-8.652446747,-32.55913925,9.403793335
11.09436792,-6.920042992,-28.96033287,5.369493961
11.09912234,-4.945964336,-26.49333191,2.87856555
11.10387672,-3.14895463,-25.49313164,1.962114573
11.10863115,-1.447657704,-25.00021172,1.880758643
11.11338552,-0.01674975827,-24.49293327,2.189432621
11.11813995,0.6173482537,-24.12683105,2.476571321
11.12289432,0.5862415433,-24.23690033,2.787638426
11.1276487,0.2297109663,-24.61735916,2.809173822
11.13240313,-0.8350951076,-24.77050018,2.490928411
11.1371575,-1.840080619,-25.04328156,2.321038008
11.14191193,-2.124826431,-25.69412994,2.507678032
11.1466663,-1.265803218,-26.73261452,3.00538516
11.15142068,-0.1172483116,-27.53421021,3.433700562
11.1561751,0.4905286431,-27.65863609,3.649054527
11.16092948,0.5264210105,-27.19921494,4.086941242
11.16568391,0.8279166222,-26.16790771,5.505885124
11.17043828,1.50269258,-25.34716988,6.79561615
11.17519266,2.579462767,-25.08395958,6.340980053
11.17994708,4.189832687,-25.06481743,4.469792843
11.18470146,6.417550564,-25.08874512,0.8829515576
11.18945589,8.934800148,-25.0743885,-6.723831654
11.19421026,12.34696484,-25.28256416,-20.99462509
11.19896469,15.70648766,-24.86382103,-32.09971619
11.20371906,16.89811325,-23.13859558,-29.99881744
11.20847344,15.48874092,-20.82952118,-16.94836235
11.21322786,13.36630726,-18.6735878,-3.333201885
11.21798224,12.82313633,-16.80240059,4.486542225
11.22273662,12.90449238,-15.02692604,7.05164814
11.22749104,12.69631672,-13.15334606,7.058826923
11.23224542,12.03111267,-11.01894855,5.934200287
11.23699984,10.4853487,-8.38923645,4.400400639
11.24175422,9.042476654,-6.161518097,1.332802176
11.24650859,8.092526436,-4.149154663,-4.043870449
11.25126302,7.884350777,-2.342573404,-10.41356373
11.2560174,8.573483467,-1.127019525,-14.37847137
11.26077182,10.07617569,-1.002592683,-12.86620712
11.2655262,11.27498055,-1.581655741,-7.171289444
11.27028057,11.32522964,-2.074577332,-1.823330879
11.275035,10.63609695,-2.232503414,2.531606436
11.27978938,9.970891953,-1.954936147,4.139583111
11.2845438,9.844072342,-1.304088354,2.991028309
11.28929818,10.8682003,-0.3541377485,-0.5455635786
11.29405255,11.96889877,0.6915257573,-4.232903481
11.29880698,12.93081379,1.615155339,-5.819344521
11.30356136,13.35673618,2.27078867,-4.998606682
11.30831573,13.9238348,2.87856555,-2.81395936
11.31307016,14.16551018,3.555734396,-2.120040894
11.31782453,14.23729515,4.342973232,-3.316452265
11.32257896,13.78505135,5.156532764,-4.651647091
11.32733333,13.37348557,5.814558983,-5.249852657
11.33208771,12.37328625,5.927021503,-4.534399033
11.33684208,11.24148083,5.831308842,-3.9625144
11.34159651,10.48774147,5.795416355,-3.919443607
11.34635089,9.851250648,5.840879917,-4.299902439
11.35110531,9.243474007,5.864808083,-4.864608288
11.35585969,8.283951759,5.752345562,-5.096712112
11.36061406,6.101697922,5.053641319,-5.252245903
11.36536849,4.003192425,3.862015724,-5.434100151
11.37012286,2.158325911,2.617748022,-5.848058701
11.37487724,0.7585247755,1.581655741,-6.355337143
11.37963167,-0.3397808075,0.8063812256,-6.486942291
11.38438604,-0.8327022791,0.2392822653,-5.697310925
11.38914042,-0.8733802438,-0.1124626622,-3.979264021
11.39389484,-0.366101861,-0.3062812984,-1.785045743
11.39864922,0.5120640397,-0.4833501875,0.2057827413
11.40340365,1.067198873,-0.6388836503,1.507478237
11.40815802,1.251446247,-0.8949156404,2.208575249
11.4129124,1.332802176,-1.284945726,2.68713975
11.41766682,1.428515077,-1.856830359,3.022135019
11.4224212,1.828116536,-2.555534601,3.357130051
11.42717557,2.49332118,-3.311666489,3.316452265
11.43193,3.531806231,-4.352544308,3.268595695
11.43668438,4.931607246,-5.989234924,3.30927372
11.44143875,6.75972414,-8.322237015,3.225524902
11.44619318,9.420542717,-12.09811115,3.014956474
11.45094755,14.66800308,-18.95354843,3.067598581
11.45570193,21.2841568,-28.48655319,3.6299119
11.46045636,27.12982368,-42.65206528,-5.369493961
11.46521073,27.93381119,-58.17191315,-8.848658562
11.4699651,23.61476707,-66.88657379,-1.619940877
11.47471953,13.94776344,-69.52107239,4.072584152
11.47947391,5.381458282,-70.37770081,6.094519138
11.48422833,-0.760917604,-69.97331238,8.197810173
11.48898271,-4.584648132,-69.11428833,8.884550095
11.49373708,-5.185246468,-64.60860443,5.419743061
11.49849146,-5.434100151,-54.7166748,0.4354937077
11.50324589,-4.328616142,-43.43212509,-4.98903513
11.50800026,-3.414557934,-34.03790283,-8.121239662
11.51275464,-2.964707375,-27.1322155,-7.652246952
11.51750906,-2.39760828,-22.1120739,-5.800201893
11.52226344,-1.698904037,-18.10409546,-4.168296814
11.52701781,-1.220339537,-15.08913994,-3.010170937
11.53177224,-1.014556766,-12.61017513,-2.352144718
11.53652662,-0.9619147182,-10.77488041,-1.672582984
11.54128099,-0.9906286001,-9.358329773,-1.203589797
11.54603542,-1.074377418,-8.33180809,-0.8614161611
11.55078979,-1.253839016,-7.503891945,-0.4953143001
11.55554417,-1.509871125,-6.735795975,-0.1076770201
11.56029859,-1.816152334,-6.046662807,0.3230310678
11.56505297,-2.167897224,-5.374279499,1.045663476
11.56980734,-2.581855536,-4.759324074,1.895115495
11.57456177,-3.012563705,-4.259224415,2.746960402
11.57931615,-3.64426899,-3.780659676,3.321237803
11.58407052,-4.180261135,-3.352344513,3.670589924
11.5888249,-4.546362877,-2.888136864,4.096512318
11.59357932,-4.943571568,-2.407179594,4.522434711
11.5983337,-5.32163763,-2.007578135,4.900500774
11.60308807,-5.216353416,-1.689332843,5.448457241
11.6078425,-5.302495003,-1.50269258,5.589633465
11.61259688,-5.352744102,-1.237089276,5.486742496
11.61735125,-5.544169903,-0.9020941257,5.43649292
11.62210563,-5.568098068,-0.5551348329,5.300102234
11.62686005,-5.527420521,-0.1914258152,4.823930264
11.63161443,-5.527420521,0.1531406492,4.182653904
11.6363688,-5.469992638,0.4761717021,3.428914785
11.64112323,-5.247459888,0.8183453679,2.359323025
11.6458776,-4.833501816,1.143769264,0.6604190469
11.65063198,-4.534399033,1.572084427,-1.785045743
11.65538636,-4.575077057,2.244467735,-5.9485569
11.66014078,-4.747360229,3.067598581,-10.35613632
11.66489516,-4.505684853,4.204189301,-13.86640739
11.66964953,-3.799802303,5.192425251,-15.78545094
11.67440396,-3.029313564,5.773880959,-15.60838223
11.67915833,-2.438286304,6.364908218,-15.66341686
11.68391271,-1.763510346,7.156932354,-16.88136292
11.68866708,-0.3972085714,7.855636597,-19.30290031
11.69342151,1.710868239,8.36052227,-21.17648125
11.69817589,4.153940201,8.425128937,-19.37229156
11.70293026,6.561119556,7.781459332,-11.72004509
11.70768469,9.377471924,6.43908596,-1.811366796
11.71243906,12.38046455,4.34775877,6.819544315
11.71719344,14.32104397,1.603191137,12.03589821
11.72194786,14.71585941,-0.9068797827,15.09631824
11.72670224,13.48834133,-2.62253356,16.16591072
11.73145662,12.03111267,-3.718446493,15.92184162
11.73621099,10.8179512,-4.620540619,14.42393494
11.74096542,9.293723106,-5.211567879,12.64606762
11.74571979,7.434499741,-5.388636589,10.92084217
11.75047417,5.458028316,-5.18046093,8.865407944
11.75522854,3.467200041,-4.800002098,7.214360237
11.75998297,1.639083505,-4.242474556,6.185446739
11.76473734,0.3158525825,-3.610769272,4.855037212
11.76949172,-0.4666004181,-3.151347399,3.127419233
11.77424615,-1.275374413,-3.163311481,-1.179661512
11.77900052,-3.83569479,-5.230710506,-22.62174606
11.7837549,-2.809173822,-4.153940201,-12.78245831
11.78850927,-1.351944804,-3.617947817,-3.160918713
11.7932637,-0.7537391186,-3.766302824,1.387837172
11.79801807,-1.115055323,-5.776273727,2.005185366
11.80277245,-1.347159147,-11.06441212,2.419143677
11.80752682,-0.418743968,-21.57129669,2.275574446
11.81228125,0.313459754,-31.04926682,1.42372942
11.81703563,0.7704889178,-36.68436432,1.871187329
11.82179,1.009771109,-38.90490341,2.873780012
11.82654438,-0.7657032609,-39.08675766,9.834501266
11.8312988,-3.938585997,-36.79922104,13.60080433
11.83605318,-5.740381718,-30.90330505,12.84945774
11.84080755,-6.338587284,-25.42613411,11.65783215
11.84556193,-5.742774487,-23.17927361,7.432106972
11.85031636,-4.022335052,-22.14796638,3.416950703
11.85507073,-2.711068153,-21.34397888,1.115055323
11.8598251,-1.363908887,-21.32962036,0.3924229145
11.86457948,-0.1531406492,-21.51626205,0.09092725813
11.86933391,0.7417750359,-21.47797585,0.3708875179
11.87408828,1.203589797,-21.34876442,1.098305583
11.87884266,1.258624673,-21.75554276,1.627119422
11.88359703,0.7657032609,-22.78206444,1.545763373
11.88835141,0.6053841114,-23.99044037,1.40697968
11.89310583,0.9954141974,-25.18445778,1.763510346
11.89786021,1.591227055,-26.08655167,2.163111687
11.90261458,2.151147604,-26.87618446,2.679961443
