Time (s),Acceleration x (m/s^2),Acceleration y (m/s^2),Acceleration z (m/s^2)
6.002372501,-0.686030466815023,-2.9118719083400264,0.34504937346768433
6.007126928,-0.8221789147848458,-2.309542164437589,0.6878896568606397
6.011881407,-0.9490341924045401,-1.6650239185646052,1.0280863088937768
6.016635886,-1.0576751970063438,-0.9798693263758446,1.3632060544464673
6.021390365,-1.1391574719082822,-0.25751759302155003,1.6902182843317615
6.026144792,-1.184877188203594,0.4966614508100399,2.005370043168564
6.030899272,-1.1869455564041684,1.275444460270859,2.3041522761041655
6.035653751,-1.1385605977878177,2.069956080172198,2.5813622135800744
6.040408178,-1.0343631843785144,2.8699910826393387,2.831254452990478
6.045162657,-0.8707641691481972,3.66444588000385,3.0477641298924105
6.049917136,-0.6462293492549235,4.441841012917561,3.224780385222147
6.054671615,-0.3615090232487966,5.190909779228952,3.356446780567372
6.059426042,-0.019799091731918073,5.901222753575725,3.4374664337471517
6.064180522,0.373178856149199,6.563813848364541,3.4633923891482365
6.068935001,0.8091899880584482,7.1717710801509424,3.43088724727203
6.073689428,1.2776008317112553,7.720754603328171,3.3379397844090306
6.078443907,1.765602656234625,8.209406047621298,3.1840298406521224
6.083198386,2.258546012578189,8.639616805352317,2.970235888199093
6.087952865,2.740383434274481,9.016628558694402,2.6992822172301856
6.092707292,3.194211103457484,9.348946768428895,2.3755245473602384
6.097461772,3.602893779103032,9.648056699110331,2.0048743233731448
6.102216251,3.9497510509267775,9.92794137819704,1.5946634568458917
6.10697073,4.2192775776465155,10.204411165295578,1.1534532441318552
6.111725157,4.397865833342865,10.49426481491043,0.6907936893869513
6.116479636,4.4744973170341416,10.81431157317419,0.21694218810439667
6.121234115,4.44136733555534,11.18029256006556,-0.2574469691687876
6.125988542,4.294409380247729,11.605747120666301,-0.7216489126751019
6.130743022,4.033687714049144,12.100875668485669,-1.1651958886222296
6.135497501,3.6636309480464613,12.671454480479706,-1.578191720445555
6.140251928,3.1930850101175126,13.317859659750685,-1.9515991834790993
6.145006407,2.6351709194376816,14.034256860862488,-2.277488130564202
6.149760886,2.006941081518158,14.808010278448027,-2.5492347716601054
6.154515365,1.3288371967334285,15.619358820371348,-2.761665789067986
6.159269792,0.6239629483878273,16.44139936718131,-2.9111446355555417
6.164024272,-0.08280512239129473,17.240406660217204,-2.9956009737952276
6.168778751,-0.765835313103241,17.976506843253162,-3.014507387881451
6.173533178,-1.3998449004298537,18.60470730101712,-2.96881005312764
6.178287657,-1.9610411784988087,19.0762696174106,-2.8608219990472414
6.183042136,-2.42824444192716,19.340395779212525,-2.6940889966363954
6.187796563,-2.783935144033482,19.346180862795194,-2.4732389148430416
6.192551042,-3.0151677523452096,19.044769127659823,-2.2038254879203056
6.197305522,-3.11429754909415,18.391635500718277,-1.8921766570827079
6.202059949,-3.0794738107326727,17.34890168137464,-1.5452559241231363
6.206814428,-2.914863155547637,15.887586350836626,-1.170542558068626
6.211568907,-2.6305798266903633,13.989683038478095,-0.7759332507964155
6.216323386,-2.242314577767889,11.649957824880838,-0.36966424888445354
6.221077813,-1.7706698643950003,8.877362843420382,0.03975053028816315
6.225832292,-1.2402253857602215,5.695970858258194,0.44357299707164155
6.230586772,-0.678373808819197,2.145351142654922,0.8328959907658189
6.235341199,-0.11398088639850619,-1.7196727719457903,1.1987114180479546
6.240095678,0.42406368967460867,-5.829917736486488,1.5320032214755201
6.244850157,0.9083292806248117,-10.103393203284044,1.8238761667125918
6.249604584,1.3142804172526872,-14.447484466323196,2.0657294605469616
6.254359063,1.6215843728775972,-18.761707441243377,2.2494811052788037
6.259113542,1.8152122852122403,-22.940943133373636,2.3678447241992275
6.263867969,1.8862645116706034,-26.87903005865479,2.414655429741302
6.268622449,1.8324642495179673,-30.47256752089063,2.3852352796993843
6.273376928,1.6582812575771846,-33.62476378275816,2.276782270996935
6.278131355,1.374669152276562,-36.24915252601125,2.088760181309087
6.282885834,0.998424115824757,-38.27299991262966,1.8232606200081989
6.287640313,0.5511982931812086,-39.640233821596695,1.485304260279451
6.29239474,0.05822552752146725,-40.31374648920653,1.083046313320775
6.297149219,-0.45316197655693485,-40.27695095524104,0.6278526789812366
6.301903699,-0.9551321701097508,-39.53450864739388,0.13421829871098453
6.306658126,-1.420964945185175,-38.11218769642576,-0.380492096220879
6.311412605,-1.8265753472492747,-36.05585639705776,-0.8964891373665279
6.316167084,-2.1518543797386553,-33.429660744941174,-1.3921849910820137
6.320921511,-2.3817484404035625,-30.31347635334139,-1.844982235925542
6.32567599,-2.5070184340513757,-26.79976061834837,-2.2321948292992637
6.330430469,-2.524642674537447,-22.989958495417007,-2.5320604592132065
6.335184897,-2.4378517315715307,-18.99063312060443,-2.7247963250377647
6.339939376,-2.255806511609177,-14.909500131395212,-2.793646146912566
6.344693855,-1.9929515727638227,-10.851542197683868,-2.7258648201558398
6.349448282,-1.6680928898814833,-6.915368939708145,-2.513588323486805
6.354202761,-1.3032623384742916,-3.1899684966465327,-2.15454000624893
6.35895724,-0.9224396992627302,0.24802783875889542,-1.6525300807583914
6.363711667,-0.5502069039259874,3.336475544446092,-1.0177129471050792
6.368466147,-0.2104087053017894,6.029180462670895,-0.2665767146813221
6.373220626,0.07511064061097822,8.296667430996772,0.5783493807933765
6.377975053,0.28763315054791516,10.126256811721168,1.4890715308020785
6.382729532,0.4125045909624876,11.521481164894524,2.4329807838752027
6.387483959,0.4398455492250515,12.500900468258935,3.37395136132302
6.392238438,0.365011635183897,13.096396341931552,4.273651608667067
6.396992917,0.1887921140420056,13.35104303712322,5.0930202446564845
6.401747344,-0.08265063643410689,13.316665064102672,5.793851137173141
6.406501824,-0.4380866803032252,13.051198055575998,6.340422487034758
6.411256303,-0.8617449276789912,12.615970818153109,6.701101408981066
6.41601073,-1.3340282546608995,12.073022789223693,6.849852763680894
6.420765209,-1.8323793463052134,11.482562778765935,6.76758192334189
6.425519636,-2.332255498514549,10.900662599262068,6.443245057431755
6.430274115,-2.8081688201983264,10.377263766276325,5.8746675186522666
6.435028594,-3.234748282789321,9.954557767872341,5.069020897051014
6.439783022,-3.587781647789011,9.665781370101357,4.042922064752798
6.444537501,-3.8451982271152487,9.534448949542487,2.8221326849335773
6.44929198,-3.9879574678681218,9.574024760612199,1.4408546890417957
6.454046407,-4.000813288271432,9.78802009460199,-0.0593645280758904
6.458800886,-3.8729297117620303,10.170484088091214,-1.631084773853542
6.463555313,-3.5983294307462144,10.706842982520351,-3.2227329326247074
6.468309792,-3.176163262137348,11.375031294573306,-4.780602499009568
6.473064272,-2.610794838603156,12.146849884852005,-6.251010524412848
6.477818699,-1.9117011502183925,12.989480456935405,-7.582518047982945
6.482573178,-1.0931955692417359,13.867083624226444,-8.728112126570121
6.487327605,-0.17398561970890977,14.742408310219096,-9.6472439899419
6.492082084,0.8234171247319524,15.578343818367145,-10.307619351049643
6.496836563,1.8734130811862095,16.339352319616566,-10.68664439801306
6.50159099,2.9481307450877394,16.99272858354985,-10.772445192676637
6.506345469,4.018313637373038,17.509645155960246,-10.564398878356663
6.511099949,5.054246476800886,17.865954249221797,-10.073140842831773
6.515854376,6.0266876183506515,18.04273159390433,-9.320040759012546
6.520608855,6.907774854090639,18.026561614433337,-8.336170261006798
6.525363282,7.671873279729825,17.80957679331787,-7.160814104814464
6.530117761,8.296337125456947,17.389276251624473,-5.839603150510725
6.53487224,8.762162088262901,16.76815865588238,-4.422369403146808
6.539626667,9.054510432756054,15.95321182063046,-2.960838794035635
6.544381147,9.163097431636185,14.955305176156592,-1.5062850089507362
6.549135574,9.082434021515422,13.788531268181087,-0.10726696603762226
6.553890053,8.811926348353072,12.469538752762029,1.192435992579907
6.558644532,8.355837814435102,11.016892520274563,2.3555921708687206
6.563398959,7.723123130698377,9.450487557610982,3.3529096123770614
6.568153438,6.927146678787305,7.791033039586575,4.1639957844689555
6.572907865,5.985299241676757,6.059613032004095,4.777852779720331
6.577662344,4.918527963540441,4.277321080837536,5.192900669627521
6.582416772,3.7507943713874687,2.4649586648015496,5.416545644227857
6.587171251,2.508474596884924,0.6427825783224593,5.464331827751343
6.59192573,1.2197148086270944,-1.169715906098918,5.358735133875046
6.596680157,-0.08624639547572535,-2.954016734702764,5.127673236282309
6.601434636,-1.3797779444353935,-4.692775215064036,4.802816912600354
6.606189115,-2.6315684515158724,-6.370032983250246,4.417794241573684
6.610943542,-3.813340221000463,-7.971437366036309,4.006380332475909
6.615698022,-4.8985537108283435,-9.484463007286639,3.6007616923665817
6.620452449,-5.863089296459822,-10.898621887579715,3.229956491144742
6.625206928,-6.685891043266369,-12.205641150464137,2.918460594934325
6.629961355,-7.349555133744106,-13.399583797704965,2.685175191301058
6.634715834,-7.840843980473888,-14.476886743973122,2.542655971097845
6.639470313,-8.151106098142552,-15.436294804156617,2.4967068233438776
6.64422474,-8.27658172392091,-16.278677681084435,2.546323465467324
6.648979219,-8.218575339078534,-17.00672860388662,2.6839752294516113
6.653733647,-7.983479067707074,-17.624556090051847,2.8961974812574742
6.658488126,-7.582635570479829,-18.137192505591056,3.164454016242505
6.663242553,-7.032035279132314,-18.5500530335077,3.466219071212926
6.667997032,-6.351850112682963,-18.86838506352332,3.776222508325944
6.672751511,-5.565813566334594,-19.096750204123804,4.06779873937512
6.677505938,-4.700464677860235,-19.238579114218876,4.314279183194779
6.682260365,-3.7842803327749657,-19.29583376467272,4.490368728339447
6.687014844,-2.8467262477659627,-19.268803481393345,4.573448492389159
6.691769324,-1.917261465665029,-19.15605115460891,4.544750231204087
6.696523751,-1.0243340959589204,-18.954515218257676,4.390352344447519
6.70127823,-0.19440721064722136,-18.659762210948298,4.101953786309919
6.706032657,0.54894679263765,-18.266374633518545,3.6773904019952175
6.710787136,1.1858473757055998,-17.768450024316085,3.1208681901607602
6.715541563,1.7007705423434842,-17.160180175020823,2.442899528332495
6.720296042,2.083050333433832,-16.43647456502302,1.659941164810309
6.725050522,2.3271970334983125,-15.593589582917584,0.7937463287438603
6.729804949,2.4330195119996607,-14.629724894907485,-0.12954291959826075
6.734559428,2.405547205440147,-13.545550167753044,-1.0805236321354341
6.739313855,2.2547554076534375,-12.344628891657713,-2.027828560543649
6.744068334,1.9951053217111743,-11.033710930130447,-2.939529545155617
6.748822761,1.6449174664607702,-9.622871434876089,-3.7845785204853617
6.75357724,1.2256034360412817,-8.125480805820587,-4.534213222150155
6.758331667,0.7607865772485536,-6.557998341846631,-5.163255123464187
6.763086147,0.2753465776931312,-4.939590888235585,-5.651232146849835
6.767840626,-0.20557418443824454,-3.2915867735387647,-5.983268524714624
6.772595053,-0.6575637090182118,-1.6367841712833777,-6.150698640862312
6.777349532,-1.0578949744338892,0.001358793616903283,-6.151379715081575
6.782103959,-1.386406725799565,1.5996178231250573,-5.989697724137241
6.786858438,-1.6262787919559063,3.135940176801431,-5.676279346292572
6.791612865,-1.7646746239778999,4.5903825641932725,-5.22743768787559
6.796367344,-1.7932284206866318,5.946003376566358,-4.664389947400942
6.801121772,-1.7083590843763619,7.189663341922529,-4.012291163209951
6.805876251,-1.511398459523466,8.312690664754117,-3.2991308532234256
6.810630678,-1.2085271036910903,9.311370877272221,-2.5545400642503244
6.815385157,-0.8105174043862506,10.187227991906669,-1.8085562943804672
6.820139584,-0.3322911258425861,10.947071929846112,-1.0903936626614503
6.824894063,0.20769390167151616,11.602797218272519,-0.42726567633274637
6.829648542,0.7882057889186304,12.1709290323868,0.15669257635609127
6.834402969,1.3861204297830236,12.671924152051613,0.641358025043204
6.839157449,1.9773888176665961,13.129245682261846,1.0113688085383081
6.843911876,2.5380514426585545,13.568240950956248,1.2566564829009181
6.848666355,3.045258902713277,14.014861493336639,1.3727391084952476
6.853420782,3.4782569420176066,14.494272211161705,1.3607655041265325
6.858175261,3.819294739021864,15.029403456795896,1.2273142186176151
6.862929688,4.054417402802274,15.639504741627738,0.983963636480834
6.867684167,4.17410729636867,16.338761814772944,0.6466609854766183
6.872438594,4.173743940059284,17.135039823880266,0.2349270060236386
6.877193074,4.053858745004026,18.02881401600632,-0.22906080108632093
6.881947501,3.820168523670929,19.012345882561483,-0.7214602459233581
6.88670198,3.4833804169785942,20.06915678481809,-1.2177853787476793
6.891456407,3.058770305194754,21.17384295581713,-1.6939118760702239
6.896210886,2.56554660361362,22.292265438408474,-2.1270263291002265
6.900965313,2.0260211900184304,23.382136114971424,-2.496483892878357
6.905719792,1.4646186424145569,24.394006733491256,-2.78454457591989
6.910474219,0.9067635760477325,25.272652092082073,-2.976965006217173
6.915228699,0.3776933063016425,25.95882180185073,-3.0634297868049005
6.919983126,-0.09875100391475979,26.391317908940472,-3.037814369852597
6.924737605,-0.5012975260095909,26.509338798929697,-2.8982793095699053
6.929492032,-0.8123224777965841,26.255013948719444,-2.6472032386642774
6.934246511,-1.0187769212181477,25.576039955742516,-2.2909684163832744
6.939000938,-1.1129089360752786,24.42831657024532,-1.8396178286961016
6.943755417,-1.092736660897902,22.778472887708595,-1.3064063630237308
6.948509844,-0.9622390434422199,20.606169139842066,-0.7072704549579875
6.953264324,-0.7312450072791067,17.906059351130853,-0.060240858466851704
6.958018751,-0.4150172978046921,14.689305105086742,0.615178008530837
6.96277323,-0.033543635038044466,10.984541204767673,1.2986410592721127
6.967527657,0.3894359113494858,6.838210269574021,1.9695899531629613
6.972282136,0.8276210470188262,2.314205123730878,2.60786055905737
6.977036563,1.253504975420397,-2.5072153102050967,3.194259634760886
6.981791042,1.6398207021567344,-7.531239863374208,3.7111030732448143
6.986545469,1.9610030249006223,-12.651017943307641,4.142710614630417
6.991299949,2.1945852911259305,-17.750805004806338,4.475853645766321
6.996054376,2.322450332311535,-22.709639003748396,4.700153487825297
7.000808855,2.33185999244186,-27.40541303022523,4.808427318190551
7.005563282,2.216197563337538,-31.71918065108171,4.796977490500923
7.010317761,1.975372262850358,-35.53950871877805,4.665817432771894
7.015072188,1.6158543541757204,-38.76667981399062,4.418823604994717
7.019826667,1.1503327171675186,-41.31654486459365,4.063798681329397
7.024581094,0.597011998043181,-43.12383677530551,3.6124273149738904
7.029335574,-0.021408425038483326,-44.14477803787576,3.080104162595619
7.034090001,-0.6790090938058835,-44.358848111994305,2.4856157259564995
7.03884448,-1.3480969192797094,-43.769617764645304,1.8506635130896072
7.043598907,-2.0007310078917797,-42.40460481863903,1.1992254377500486
7.048353386,-2.610232232843657,-40.31415591567403,0.5567640239891208
7.053107813,-3.1525850642936653,-37.569408853935485,-0.05069756712530947
7.057862292,-3.607650895039418,-34.25943663720905,-0.5975988703299213
7.062616719,-3.9601279453522236,-30.487714465471118,-1.0599221890930872
7.067371199,-4.200211952153094,-26.368081844381404,-1.416279985881451
7.072125626,-4.323932400772675,-22.020392011963665,-1.6489567892602186
7.076880053,-4.33315947552177,-17.566049317871858,-1.7448527419247115
7.081634532,-4.23529595666575,-13.123632434909041,-1.6962786943964434
7.086388959,-4.042685027676427,-8.804788482038346,-1.5015578941726009
7.091143438,-3.7717786638815145,-4.710561893927337,-1.1653964674731516
7.095897865,-3.4421214737094266,-0.9282940259624924,-0.6989938144305385
7.100652344,-3.0752113364051747,2.470803014885912,-0.11987454304544325
7.105406772,-2.693300951658936,5.4333300159559705,0.5485646216058461
7.110161251,-2.3182037098362445,7.924609489677697,1.2777868018354923
7.114915678,-1.9701634731679822,9.928822481880767,2.035106564661284
7.119670157,-1.6668413999142562,11.448408787555655,2.784909065356073
7.124424584,-1.422464387131222,12.502794919344675,3.4900527115988362
7.129179011,-1.2471696327453639,13.126538371010001,4.113400941744406
7.13393349,-1.1465688123224327,13.366995492932496,4.61942046772846
7.138687917,-1.1215440019363843,13.281633245770347,4.9757776900745565
7.143442397,-1.168276291283483,12.93511211532788,5.154862280218869
7.148196824,-1.2784975065108477,12.396268724793288,5.135167347037177
7.152951303,-1.4399460256286127,11.735122570366645,4.902459230709647
7.15770573,-1.6369996680388519,11.020022414467117,4.450676731193114
7.162460209,-1.8514523154357099,10.31503491573063,3.782509293454116
7.167214636,-2.063396389764994,9.677661879958025,2.9096160564934523
7.171969063,-2.252170570937364,9.156953976167117,1.8524623549325918
7.176723542,-2.397331095198038,8.79206880131198,0.6397667435167154
7.181477969,-2.479605511627769,8.611300701646917,-0.6924307509290903
7.186232449,-2.4817897629491528,8.631589615867178,-2.1020504346873805
7.190986876,-2.389552769396494,8.858497160623164,-3.5425585457324247
7.195741355,-2.1921171815215854,9.286620897026879,-4.964794137749602
7.200495782,-1.8827904451068664,9.900402737529875,-6.318960620311925
7.205250261,-1.4593265759017957,10.675275176333303,-7.556694116954968
7.210004688,-0.9241058543459096,11.579079724677744,-8.63311326920426
7.214759115,-0.28412682017407603,12.57368578562758,-9.508752031455943
7.219513594,0.449187698844226,13.616735330931636,-10.151279168949054
7.224268022,1.2603614225524231,14.663439174987404,-10.536916200517544
7.229022501,2.1303960596392457,15.66835423382529,-10.65147940046299
7.233776928,3.037440445033436,16.587077540815518,-10.490990295244806
7.238531355,3.9575686563842267,17.377801424278253,-10.061821389897734
7.243285834,4.8656337571928265,18.00268453565959,-9.38036813898303
7.248040261,5.73616066193634,18.429004764116588,-8.47226315955269
7.25279474,6.544240232546195,18.630071913391664,-7.371173141850447
7.257549167,7.2663872932758595,18.585889768660323,-6.117241426430375
7.262303647,7.881327827633426,18.283568236628206,-4.755258175529462
7.267058074,8.370685045864318,17.71749597196709,-3.332653971785912
7.271812501,8.71953997723524,16.889291700646808,-1.8974205022483837
7.27656698,8.916849316619079,15.807557834758967,-0.4960633571373954
7.281321407,8.95571091123183,14.487462722687415,0.8283128841968499
7.286075886,8.833474942764271,12.95017812218079,2.0376975214076847
7.290830313,8.551706022038399,11.222196693876754,3.100569773530648
7.29558474,8.116007661735573,9.334551204856112,3.9929415380775968
7.300339219,7.535725647522426,7.321953522241594,4.699010788054297
7.305093647,6.8235505170589015,5.221868147951124,5.211410677317856
7.309848126,5.995041609765033,3.073532655665472,5.531060238717011
7.314602553,5.068095992956772,0.9169364282240625,5.666642101688088
7.31935698,4.06238509530869,-1.2082301494438703,5.633750107096689
7.324111459,2.998780232953692,-3.2636413364164545,5.453764271576715
7.328865886,1.89878562655634,-5.213397635190434,5.152521517011421
7.333620365,0.7839943257623697,-7.025059046338735,4.758857352257342
7.338374792,-0.3244208941068054,-8.670619627643163,4.30309593759592
7.343129219,-1.4061727295785063,-10.127387032368874,3.8155636867661533
7.347883699,-2.44227438279939,-11.378725623592409,3.3251952659208635
7.352638126,-3.415400352378695,-12.414618602184477,2.858291506129909
7.357392605,-4.310190655084205,-13.232004720176471,2.437477424387813
7.362147032,-5.1134975060076435,-13.834850131302293,2.080895959130145
7.366901459,-5.814574360375169,-14.233926765337598,1.8016595250034306
