Time (s),Acceleration x (m/s^2),Acceleration y (m/s^2),Acceleration z (m/s^2)
6.000167788,-0.3792966913718771,-0.8113171341461815,-0.3989228192913186
6.005167821,-1.1853240320622496,0.29310773070435364,3.5687008959057316
6.010167821,-1.9778587240003263,1.394658819285283,7.4620771643719985
6.015167821,-2.74823834790288,2.483333492440355,11.192741269585227
6.020167787,-3.4882168479502402,3.5492774961235214,14.67661385839794
6.02516712,-4.190073311737688,4.583059580549985,17.836502633728923
6.03016712,-4.846716627445177,5.575959277907699,20.604372141117608
6.035167153,-5.451784494517206,6.520254475733692,22.92329790629232
6.040166486,-5.999734515561901,7.409494253908785,24.74903206460837
6.045166486,-6.485924367746164,8.238742099155965,26.05112383476924
6.050165586,-6.906677497179483,9.004775037265368,26.813558874281835
6.055164686,-7.25933057009691,9.70622532457887,27.034904741443825
6.060164019,-7.54225914847877,10.343652990879221,26.727972993376255
6.065163085,-7.754878707833505,10.919539626201624,25.919029721126105
6.070162151,-7.897619056940736,11.438196304414438,24.646603996186343
6.075161251,-7.97187130148202,11.905581419450819,22.959956857906327
6.080160884,-7.9799075886014785,12.329027455998355,20.917281740812598
6.085160917,-7.924774898385785,12.716879290371002,18.58371072252091
6.090160917,-7.810165093655609,13.078050483954225,16.02920021599293
6.09516025,-7.640264364401795,13.42150816785668,13.326365762947676
6.100160216,-7.419586248016,13.755701494436906,10.548329841912471
6.105160182,-7.152793710726523,14.087953160169784,7.766640561300033
6.110160148,-6.844517338948937,14.423837969218338,5.049313704459074
6.115159781,-6.499178291806598,14.766576442380504,2.4590458820791965
6.120159814,-6.120825943153544,15.116474621910157,0.051641910993497665
6.125159447,-5.713000748221709,15.470443031152117,-2.1253057504767807
6.130159513,-5.278632599430932,15.821627872865774,-4.033454052239321
6.135159513,-4.819983735922077,16.159185784391504,-5.644438948726966
6.140159513,-4.338643205362888,16.468229741050695,-6.940282097559512
6.145159479,-3.835577080919412,16.72996806436528,-7.913468404825821
6.150159479,-3.311235293831234,16.922051113971666,-8.566697733864668
6.155159479,-2.7657122664355316,17.01913138927258,-8.912323745889493
6.160159512,-2.19895475477418,16.993632798905807,-8.971502283444964
6.165159512,-1.6110066764406341,16.816714212422834,-8.773080672571309
6.170159512,-1.0022774494245208,16.4594015919973,-8.352267552619486
6.175160145,-0.3738177295676738,15.89385255861468,-7.749130100563236
6.180160111,0.2724153915824366,15.094707741198025,-7.006971562392557
6.185160077,0.9333225233730872,14.040475239305108,-6.170646598253012
6.190160743,1.6044740301456821,12.714888499597388,-5.284874832750084
6.195160743,2.2799872674214963,11.108174272924005,-4.392613890053416
6.200161676,2.9524838511291294,9.218166382944343,-3.533551786797622
6.205162609,3.6131383483411543,7.05120299866237,-2.74277460657121
6.210163309,4.251825347827818,4.622750082918058,-2.0496587743516925
6.215164209,4.857366604104853,1.9577017328644413,-1.477028076847636
6.220165109,5.417874052256742,-0.9096808163157311,-1.0406041623930857
6.225165309,5.921178239069972,-3.9362158801330738,-0.7487661632892973
6.230165709,6.355325451398007,-7.070641743836444,-0.6026210650372499
6.235165709,6.709120940451206,-10.254840665203272,-0.5963723560488913
6.240165742,6.972690573059644,-13.425417052982203,-0.7179611857487098
6.245166408,7.138029440076057,-16.515581060587795,-0.9499425089280434
6.250166408,7.199503867475523,-19.45727053248596,-1.2705491186580304
6.255166408,7.1542733138031664,-22.183428214055574,-1.654889496730868
6.260166408,7.002601097319959,-24.630338606317267,-2.0762212761136545
6.265166408,6.748027891828871,-26.739920937089373,-2.5072409082844915
6.270166374,6.39738932533411,-28.461872344488334,-2.9213318656474763
6.275166774,5.960668391377823,-29.75555910481404,-3.2937182972910906
6.28016674,5.450684057150151,-30.591563691871528,-3.6024782378459697
6.285166773,4.882628549567171,-30.95281118175683,-3.829379750883115
6.290166773,4.273476341300052,-30.835219032888613,-3.9605140641295313
6.295166773,3.6412968547243003,-30.247838176303333,-3.986711016960259
6.300166739,3.004509474890186,-29.212479008914165,-3.9037332126623387
6.305166705,2.381122995772839,-27.762841602261645,-3.7122554868221673
6.310166671,1.7880018816592924,-25.943193629034205,-3.4176451650233277
6.315166671,1.240198877689782,-23.80666077843013,-3.0295657543983148
6.320166671,0.7503880489579469,-21.413211657069056,-2.561432026905241
6.325166704,0.3284249559782641,-18.827431549085993,-2.029747891141392
6.330166737,-0.018947876269000314,-16.11618647693118,-1.4533601236832454
6.33516677,-0.2882410801892366,-13.346280650174892,-0.8526611395585134
6.34016677,-0.4792039762699954,-10.582206823174376,-0.2487727741426303
6.34516677,-0.594663648967857,-7.884080792368025,0.3372592043895688
6.350166736,-0.6402329914314111,-5.305838960990152,0.8852331604966475
6.355166736,-0.6239090770263854,-2.893762454970989,1.3764990876446694
6.360166736,-0.555587574629,-0.6853736586839971,1.794586222799234
6.365166769,-0.44652158920176144,1.2912677431290756,2.1257354042578926
6.370166769,-0.30875426437865205,3.0178611043061996,2.3593246986565815
6.375167435,-0.1545538166247599,4.4857636908500735,2.4881805809523665
6.380167401,0.0041224398629899186,5.695519018515676,2.508770488248971
6.385167367,0.15611182122498837,6.656056218617231,2.4212758327042057
6.390167333,0.29145870054370926,7.383613989655347,2.229547531510577
6.395167333,0.40174137190208553,7.900451698296886,1.9409488092516813
6.400167366,0.4803041759892496,8.233416013493477,1.5660924926395305
6.405167399,0.5223908107430748,8.412434026160966,1.1184823032733997
6.410167432,0.5251796186449289,8.46900317779881,0.6140698083919175
6.415167432,0.4877260740560623,8.434744663741503,0.07074074074030173
6.420167432,0.4108215311748214,8.340080570150956,-0.4922536578300351
6.425166732,0.2967804277500142,8.213086226233187,-1.054902828683905
6.430166732,0.14917051316573782,8.078558559699866,-1.5970616601146173
6.435166732,-0.027497731702112997,7.957329143925245,-2.0990737478662074
6.440166765,-0.22810546844994248,7.865837662730954,-2.5423725648238897
6.445166798,-0.44726650926998157,7.8159682508096795,-2.9100402237014467
6.450166798,-0.6796582872447207,7.815138150309735,-3.1873047358046707
6.455166798,-0.9203271571243211,7.866615898659273,-3.3619589417686764
6.460166798,-1.1649539050714215,7.970035345258457,-3.4246876308520915
6.465166798,-1.4100672528730878,8.122062662595962,-3.369293667472475
6.470166798,-1.6531953933333179,8.317166594509342,-3.1928189634253292
6.475166764,-1.8929481572213391,8.548437821338196,-2.895561500414584
6.480166764,-2.1290252650424057,8.808401769687633,-2.480994863098697
6.485166764,-2.3621492254963936,9.089770577879184,-1.955601407075322
6.490166797,-2.59392474616098,9.38608422657254,-1.3286338258849408
6.495166797,-2.826629923236719,9.692197890349252,-0.6118221848376397
6.500166797,-3.0629478421213117,10.004582065928231,0.18095567211500227
6.505166763,-3.3056503917294986,10.321413597795694,1.0340229953432358
6.510166729,-3.557248917246208,10.642448883911094,1.930256678561044
6.515166695,-3.8196286790369447,10.968684725653475,2.8514305444595975
6.520166695,-4.0936858511685,11.30182676388918,3.77853977036232
6.525166728,-4.378986896378737,11.643599360765617,4.692100657814317
6.530166761,-4.673470506177456,11.994943232719129,5.5724239701018545
6.535166794,-4.973211802431647,12.355157246504286,6.399864024821026
6.540166794,-5.272267080477574,12.721047815877366,7.155049331434874
6.545166794,-5.562614984654394,13.086152722565059,7.819103502074088
6.55016676,-5.834206640764919,13.440105585416447,8.373867159530231
6.55516676,-6.075132977240522,13.768202499168988,8.802132394932725
6.56016676,-6.271912363603837,14.051223675350487,9.087900844692628
6.565166793,-6.409895966466695,14.265550587741734,9.216674617920958
6.570166826,-6.473782117864474,14.383603712884492,9.175786177698983
6.575167492,-6.448224801955028,14.374608208096406,8.954769036807198
6.580167458,-6.31851541339545,14.205675678827848,8.545766040120157
6.585167424,-6.07131155236619,13.843170550131015,7.943966411912835
6.59016739,-5.69538211986152,13.254310525307442,7.148057030325275
6.595167356,-5.18233466382838,12.408933249898986,6.160667956639544
6.600167356,-4.527289064857913,11.281346627573125,4.988787498376597
6.605167389,-3.7294614461273157,9.852169201302424,3.6441184106317293
6.610167422,-2.7926237813121997,8.110060432015608,2.1433445919205933
6.615167455,-1.7254081098935594,6.053239208150776,0.5082771041014132
6.620167455,-0.5414295187440051,3.6906929059192697,-1.234150243535069
6.625166788,0.7407910116243629,1.0429889321700834,-3.0520620403299445
6.630166754,2.098114387665992,-1.8573842254367077,-4.909019918655591
6.635166754,3.503282738672274,-4.966199286551051,-6.764611995173354
6.640166754,4.925620932170988,-8.228224227695788,-8.575257238430646
6.645166787,6.331920343630701,-11.578508834721813,-10.29521839122199
6.650166787,7.687474724643408,-14.944194866428886,-11.877805722676444
6.655166787,8.957228717231036,-18.246790923942076,-13.27674225806283
6.660166787,10.106991844307817,-21.404824538856445,-14.447649896057204
6.665166787,11.104665308399445,-24.336758821756284,-15.349605689309108
6.670166787,11.9214262299346,-26.9640412308666,-15.946709249662012
6.675166087,12.53281447685356,-29.21413937194452,-16.2095963833146
6.680166087,12.919671142603644,-31.02341447900208,-16.116831147647083
6.685166087,13.068884837049428,-32.339687920881175,-15.656108828474792
6.69016612,12.973911719924422,-33.12436954897481,-14.825205936203727
6.695166153,12.635046803377397,-33.35403807901482,-13.632620118855447
6.700166153,12.0594365218762,-33.021391575046735,-12.097852674445475
6.705166119,11.2608349884561,-32.135518682005426,-10.251298798339496
6.710166085,10.259117953202262,-30.721476504868498,-8.133725416152675
6.715166085,9.079578685611096,-28.81919683328679,-5.795332955129502
6.720166085,7.752038446216141,-26.481776665838545,-3.2944151900430305
6.725166118,6.309810683828543,-23.773239729510124,-0.6956498574490791
6.730166118,4.788562510996578,-20.76588119938068,1.9319284588974839
6.735166118,3.2251194021471132,-17.537326829743726,4.517203268847162
6.740166118,1.6562595547496732,-14.167449544352232,6.9894120116632115
6.745166118,0.1175431486834988,-10.735291039548867,9.28064156992685
6.750166118,-1.3577809566328716,-7.316133155173815,11.328272489494168
6.755166084,-2.73975255055234,-3.9788537060275146,13.077257672630495
6.760166084,-4.002528057981706,-0.7836844273453164,14.482126029696367
6.765166084,-5.125032055036649,2.2195344433335706,15.50861450842587
6.770166117,-6.091412396990155,4.992536119528,16.13485181378086
6.775166783,-6.891287067248349,7.509209302264109,16.352041699758633
6.780166783,-7.519779390563339,9.75557499818344,16.164620380320187
6.785166749,-7.977346875898152,11.729182994437192,15.58988908342391
6.790166749,-8.269417221934443,13.437980562318984,14.657147357938292
6.795166749,-8.405852561585005,14.898729958769179,13.40637438763802
6.800166782,-8.4002695790193,16.135070676322925,11.886523784065856
6.805166782,-8.26924851247526,17.17533653683204,10.153511965794184
6.810166782,-8.031468065569983,18.050246270531314,8.267991143179833
6.815166782,-7.706805664941577,18.79058902336328,6.29300479816119
6.820166782,-7.315443124041975,19.425023342273487,4.291625984347578
6.825166782,-6.877016515038201,19.97809986051605,2.3246765605378883
6.830166748,-6.409845976895713,20.46860462739745,0.44861874622388104
6.835166714,-5.930276490548647,20.90830249587275,-1.2863003758893399
6.840166714,-5.452154610816892,21.301139067249494,-2.8375848778161012
6.845166714,-4.986459090340496,21.642936392073953,-4.171656564331503
6.850166747,-4.541095621627814,21.921593019078628,-5.264620279042776
6.855166747,-4.1208579259949385,22.11777418917322,-6.1026148363822355
6.860166747,-3.7275494914023115,22.206054108926054,-6.681754858981711
6.865166713,-3.360252744456879,22.156450386836426,-7.00768592635354
6.870166679,-3.0157256522055347,21.93627186339344,-7.094790507897975
6.875166645,-2.688899984110951,21.51218604942118,-6.965094540104286
6.880166645,-2.3734509998203226,20.852401840294572,-6.646933847859609
6.885166678,-2.0624054029000134,19.928857498978086,-6.173445805470694
6.890166711,-1.748753187575458,18.719303272205675,-5.580954801249846
6.895166744,-1.4260295836519072,17.209172387388705,-4.9073204520447025
6.900166744,-1.088835645770321,15.393143356175441,-4.190315399621486
6.905166744,-0.733270006347118,13.276310102998805,-3.466095201476645
6.91016671,-0.3572497013091202,10.874893906531902,-2.767816581910919
6.91516671,0.03929549703871453,8.216451797229832,-2.124452388799555
6.92016671,0.45436347513521924,5.339559054821424,-1.5598422386973096
6.925166743,0.8839553671888868,2.2929678303961145,-1.092007260861717
6.930166743,1.3222789887213136,-0.8657313676677107,-0.7327458499107994
6.935166743,1.7620653112990476,-4.07189461373007,-0.4875152785863524
6.940166309,2.194976493025211,-7.255983069082146,-0.3555918859980562
6.945166275,2.6120784725437756,-10.346002921222825,-0.33049090849538737
6.950166241,3.004347190217007,-13.270119291036941,-0.40061645066169604
6.955166241,3.363175472304151,-15.95932621013178,-0.5501031337953473
6.960166241,3.6808477819782808,-18.350050067312516,-0.7598040124113087
6.965166274,3.950952548372025,-20.38656550012283,-1.0083746829099145
6.970166307,4.168706572952946,-22.023110756671727,-1.2734012890506567
6.975167007,4.331172775226218,-23.22560383982729,-1.5325204434145006
6.980167007,4.437360717569537,-23.972880581178416,-1.764481912196929
6.985167007,4.488208174425119,-24.25740005155523,-1.950110070090303
6.990166973,4.486450607916188,-24.0853899083956,-2.073127248455045
6.995166939,4.436392938740365,-23.47643268030895,-2.1208106342619604
7.000166039,4.343603804378122,-22.462521801727576,-2.0844637020788532
7.005165172,4.214556219705033,-21.086641732148582,-1.959692651561917
7.010164338,4.05624016117269,-19.40094821772852,-1.7464874265885484
7.015163504,3.8757722983586107,-17.46464146211581,-1.449115170760242
7.020163537,3.6800262352256365,-15.341635877433982,-1.07584111427749
7.02516287,3.4753035523663636,-13.09813492289308,-0.6384976925422019
7.03016287,3.2670619859471968,-10.800218541741732,-0.15192706885969454
7.03516217,3.059712544268413,-8.511544461748539,0.3666748450308454
7.04016217,2.8564925491749866,-6.29125392177806,0.8984832543749723
7.045161503,2.659416787244349,-4.1921581428864,1.423808381777473
7.050160869,2.469304426964516,-2.259265067204253,1.922869443145447
7.055159969,2.285875320361122,-0.5286875575750944,2.3765515549603506
7.060159069,2.107905923305581,0.9730446284858049,2.7671209363442495
7.065158369,1.933432444019586,2.229265297642118,3.078876734305699
7.070157435,1.759987019490492,3.233058285829146,3.2987210132018085
7.075156501,1.5848517388669079,3.9867790536103924,3.4166317503512564
7.080155601,1.405315160978995,4.501253758014072,3.4260269689958944
7.085154934,1.2189165568171436,4.7947086819909375,3.324011373686623
7.090155334,1.0236643633204725,4.891490539849416,3.111500032769043
7.095154467,0.8182171552758599,4.820642840391624,2.793216807597281
7.1001545,0.6020177102717242,4.61440521967588,2.3775683980740623
7.1051545,0.375373340114836,4.3067015953810746,1.8763980938330735
7.1101545,0.13947847552645334,3.9316793786734627,1.3046266098935388
7.115154466,-0.10362159592315513,3.5223561170728526,0.6797907388388862
7.120153799,-0.35112404020699906,3.109422195862094,0.02149391678759732
7.125152899,-0.5996142629513082,2.720238987833179,-0.6492139411570303
7.130152932,-0.8452570482869871,2.3780615163397543,-1.3105070203546925
7.135152032,-1.0840236850993763,2.101503696225694,-1.9404818656585174
7.140152032,-1.3119438469690787,1.9042529559741155,-2.517858954489987
7.145151365,-1.5253695457922232,1.7950299333734572,-3.0226625954517834
7.150152231,-1.7212374868595568,1.7777783745177855,-3.4368547109270744
7.155153097,-1.8973156354042369,1.8520607304175989,-3.7448998708124694
7.160154197,-2.0524197790313976,2.0136265884932993,-3.934242018764285
7.165155063,-2.1865863627546354,2.255114314695247,-3.995677565476647
7.170155063,-2.3011889216612302,2.5668413885044896,-3.9236146748563843
7.175155763,-2.398987084896157,2.937636102889437,-3.716214257504334
7.180155763,-2.484099408918322,3.3556627153686716,-3.3754139245878596
7.185156429,-2.5618942225754435,3.8091938225389237,-2.906841426933414
7.190156395,-2.638796185873833,4.287287628601233,-2.319628454171148
7.195157028,-2.7220102721181147,4.780333715841433,-1.6261387818517523
7.200157694,-2.8191692138499724,5.280438630013966,-0.8416265010642312
7.205158627,-2.937914893364746,5.781631728682121,0.01615948781561252
7.21015956,-3.0854284690316653,6.2798819380014255,0.9274091580164402
7.215160226,-3.267927974019191,6.772926934076961,1.8707090431942286
7.220161126,-3.490155498548551,7.259927373386672,2.8235116321152254
7.225161359,-3.7548786956267235,7.74096962949416,3.76260635031388
7.230162259,-4.062433071303894,8.216450456830696,4.664584342828365
7.235162925,-4.4103321721200075,8.686385462096869,5.506291627138668
7.240162925,-4.792972211972034,9.149689611234853,6.265267397573297
7.245163258,-5.201455766780134,9.603481724309692,6.920166155054565
7.250163258,-5.623555839609805,10.042465658016035,7.451163737593395
7.255163291,-6.043836864731428,10.458438486426301,7.840348092376501
7.260163291,-6.4439431684822335,10.839970515268583,8.072095665461742
7.265163291,-6.803058225763075,11.172293653712455,8.133433567278546
7.270163924,-7.098530020493336,11.437423937304493,8.014386256610026
7.27516479,-7.306649287070637,11.614531384512903,7.70830349661922
7.280164756,-7.403558786291193,11.680556496098317,7.2121639500312895
7.285165656,-7.366263500787948,11.611058246942017,6.526846211243662
7.290165689,-7.173704184001641,11.381264097254896,5.657356563673145
7.295166389,-6.807850512668094,10.967279122797413,4.61300055971562
7.300166422,-6.2547655871966406,10.347399595883847,3.407483903809524
7.305166422,-5.505591046873258,9.503466963522053,2.0589273061378366
7.310166155,-4.557401885266914,8.422191796563824,0.5897801494950387
7.315166121,-3.4138823366752318,7.096374417310018,-0.9733809014081422
7.320166087,-2.085779021746743,5.5259498764716115,-2.6001797659674786
7.325166087,-0.591094837812806,3.7187898801193633,-4.256903109256703
7.33016572,1.045003322644422,1.691203104419497,-5.907099978870226
7.335165753,2.7905783560068027,-0.531912174118203,-7.512316590899039
7.340165753,4.607620431005974,-2.9172935096654613,-9.03295780764587
7.345165753,6.4530362450608445,-5.423929890749642,-10.429260379359318
7.350165719,8.279903673481144,-8.00405961095306,-11.66235653363032
7.355165685,10.03895138771514,-10.604521721449343,-12.695400332807125
7.360165651,11.680210168895307,-13.16841197640679,-13.494723729608207
7.365165651,13.154771775995684,-15.636975409292257,-14.030984758967962
7.370165684,14.416583094253033,-17.951651850807153,-14.28026708347247
7.375166384,15.424198552264407,-20.056179087665328,-14.22508836092996
7.380166417,16.142412972597114,-21.89865203652165,-13.855274747295748
7.385166417,16.543700405793313,-23.43343597818387,-13.168660344106245
7.390166417,16.609392074023255,-24.622837793951057,-12.171573567282127
7.39516695,16.330537922451587,-25.438450977457972,-10.8790772518452
7.40016695,15.708410681939709,-25.862107186884558,-9.314935781305136
7.40516695,14.754627768134654,-25.886388098257253,-7.511290558947616
7.410166983,13.490883668195442,-25.514674922419374,-5.508034586901991
7.415166983,11.94830264462512,-24.760737650754432,-3.351887610263001
7.420166983,10.166437724045988,-23.647890395445742,-1.0951850016410967
7.425166316,8.191956359506367,-22.207761666151217,1.2055939466028565
7.430166316,6.077065407820759,-20.478747789299064,3.491519675917066
7.435166316,3.8777378938896443,-18.50423285555948,5.703076197022456
7.440166282,1.6518113099093745,-16.330668849092575,7.782130600597797
