Time (s),Acceleration x (m/s^2),Acceleration y (m/s^2),Acceleration z (m/s^2)
6.000489952,0.2073009272378042,0.10520121509820905,-0.38055341738988185
6.005266358,0.2111812739610491,0.05471569586248946,-0.463227323522449
6.010042712,0.2126308166763708,0.004312681071906157,-0.5439540529115219
6.014819119,0.2115974879901754,-0.04575177732256203,-0.6222498606197767
6.019595525,0.20806458483293366,-0.09524542032799707,-0.6976425770883146
6.024371931,0.20205193423241766,-0.1439629086624522,-0.7696754218566623
6.029148337,0.19361663539655172,-0.19172840729075866,-0.8379107926251789
6.033924744,0.18285336110126396,-0.23839757427901026,-0.9019339982596488
6.03870115,0.16989420382423337,-0.28385890992885965,-0.9613569060556464
6.043477556,0.1549080546023798,-0.32803443287806494,-1.0158214748386298
6.048253962,0.13809950513255767,-0.3708796617282936,-1.0650031459187326
6.053030369,0.11970726618669493,-0.4123828935371274,-1.1086140633668686
6.057806775,0.10000209808344329,-0.45256378391786234,-1.1464060935342941
6.062583181,0.07928425194276359,-0.49147124728101454,-1.1781736112801535
6.067359587,0.057880423942852526,-0.5291807096791445,-1.2037560171130726
6.072135994,0.03614022885146366,-0.5657907604861185,-1.2230399456690664
6.0769124,0.014432203695711332,-0.601419262402913,-1.2359611221657012
6.081688806,-0.0068606421877649,-0.6361989916825986,-1.2425058203578647
6.086451879,-0.027345707680429283,-0.6702728917258467,-1.2427118737024498
6.091241619,-0.046626079079119906,-0.7037890331393182,-1.236669191449559
6.096018025,-0.06430616496237451,-0.7368953818515775,-1.224519733695208
6.100781098,-0.07999763082541601,-0.7697344837728277,-1.2064569044431264
6.105570785,-0.09332556359769678,-0.8024381795046867,-1.1827243295539143
6.110347192,-0.10393478186293825,-0.835122465477882,-1.1536139968791617
6.115123598,-0.11149619383881978,-0.8678826184078736,-1.1194637484159093
6.119900004,-0.11571309293247878,-0.9007886979804018,-1.0806541283588522
6.12467641,-0.11632727098139915,-0.9338815381439499,-1.0376046057159944
6.129452817,-0.11312482283386723,-0.9671693302608553,-0.9907692048763013
6.134229223,-0.10594151301800403,-1.000624891624685,-0.9406315914990373
6.139005629,-0.0946675759612733,-1.0341837004862118,-0.8876996738837084
6.143782035,-0.0792518255670117,-1.0677427638286503,-0.8324997913144352
6.148558442,-0.059704957909644814,-1.101160366896076,-0.7755705706320104
6.153334848,-0.03610194230506528,-1.134256734210908,-0.7174565404672805
6.158111254,-0.008583410890656513,-1.1668156109101848,-0.6587015992220724
6.16288766,0.022644025240574118,-1.1985867511974309,-0.5998424379372863
6.167664067,0.057308584950350634,-1.229289278230582,-0.5414020222757437
6.172440473,0.09507528041249853,-1.2586158576668176,-0.48388323849114584
6.177216879,0.1355490406534112,-1.2862376061324872,-0.42776280633036096
6.181993285,0.17827897610033405,-1.3118096366514351,-0.3734855576776866
6.186769692,0.22276373925402956,-1.3349771260033314,-0.3214591738452321
6.191546098,0.26845791092354493,-1.355381774615104,-0.27204946695953475
6.196322452,0.3147793168527432,-1.3726685185198697,-0.22557628190787982
6.201098858,0.3611171570581535,-1.3864923457053704,-0.18231008479593977
6.205875264,0.40684081063439503,-1.3965250661818958,-0.14246929196918898
6.210651671,0.4513091627585249,-1.4024618864309761,-0.10621838063996117
6.215428077,0.4938802884797806,-1.4040276444037139,-0.07366680835267304
6.220204483,0.533921319731415,-1.4009825705879522,-0.04486875418634206
6.224980889,0.5708183177464384,-1.393127453406775,-0.019823679978578645
6.229757296,0.6039859724527675,-1.380308102834462,0.001522304794092509
6.234533702,0.6328769532068753,-1.3624190240739475,0.019274305211923592
6.239310108,0.656990741225453,-1.339406232852005,0.03358577456707559
6.244086514,0.6758817832003302,-1.3112691647303567,0.04465497632676045
6.248862921,0.6891668177573129,-1.2780616521345842,0.05272084218852362
6.253639327,0.6965312415240499,-1.239891963856187,0.058058303260698586
6.258415733,0.6977343993907877,-1.1969219218399119,0.06097317891896781
6.263192139,0.6926137037311949,-1.1493651284206994,0.06179671364920467
6.267968546,0.6810875094351388,-1.0974843532987237,0.060879856132567044
6.272744952,0.6631566951049757,-1.041588143213267,0.05858737690582946
6.277521358,0.6389049252289216,-0.9820267285396492,0.055291921151826566
6.282297712,0.6084975931311557,-0.9191873100468471,0.051368091662167124
6.287074119,0.5721794695465416,-0.8534888159712224,0.047186653970625235
6.291850525,0.530271106244864,-0.7853762245138076,0.043108951316054876
6.296626931,0.48316406759260994,-0.7153145499867668,0.0394816116634799
6.301403337,0.43131508460006396,-0.6437825922894583,0.036631622619584935
6.306179744,0.37523924523115626,-0.5712665494077246,0.034861842805731305
6.31095615,0.31550235100319685,-0.4982535913937924,0.03444701020504809
6.315732556,0.25271258269309116,-0.4252254918440216,0.0356302993020347
6.320508962,0.18751162699234772,-0.35265240917713936,0.03862046955034485
6.325285369,0.12056542119303355,-0.28098690501135404,0.043589637875022964
6.330061775,0.0525546746444426,-0.2106582807624939,0.05067169765932806
6.334838181,-0.01583467591266458,-0.1420673063931346,0.059961396229999825
6.339614587,-0.08392092462582317,-0.0755814071577479,0.07151407255296043
6.344390994,-0.15103582309607794,-0.011530365364975486,0.08534604696786877
6.3491674,-0.21653343924792393,0.049797415144286955,0.10143564548953903
6.353943806,-0.2797985236903316,0.10815804365775913,0.1197248324987281
6.358720212,-0.34025427146532305,0.16335464780749492,0.1401214174360861
6.363496567,-0.39736938104738645,0.21523923014103324,0.16250179327908112
6.368273025,-0.45066432736002393,0.2637138659041245,0.18671415705004685
6.373049379,-0.49971678106688333,0.3087312405038577,0.21258215538604658
6.377825785,-0.5441661220672156,0.35029453316201026,0.23990889138110486
6.382602192,-0.5837170105976158,0.38845666056699674,0.26848122258924695
6.387378598,-0.618141994445763,0.4233189008051501,0.29807427432736744
6.392155004,-0.6472831455030386,0.4550289235959933,0.3284560873197467
6.39693141,-0.671052733039015,0.4837782579829765,0.3593923144562122
6.401707817,-0.6894329542060877,0.509799233054659,0.39065087829412565
6.406484223,-0.7024747539230176,0.5333614308141751,0.4220064992416772
6.411260629,-0.7102957763334478,0.5547676930368574,0.45324500434294507
6.416037035,-0.713077498690323,0.5743497262602764,0.48416732839402943
6.420813442,-0.7110616059341568,0.5924633513843819,0.5145931228933228
6.425589848,-0.7045456702946215,0.6094834468436436,0.5443638941721346
6.430366254,-0.6938782047491013,0.6257986367354286,0.5733455999693364
6.43514266,-0.6794531621544706,0.6418057774048894,0.601430643578245
6.439919067,-0.661703953656449,0.657904297744452,0.6285392162466079
6.444695473,-0.6410970610115302,0.6744904499818979,0.6546199514138172
6.449471879,-0.6181253180936507,0.691951529148489,0.6796498682922705
6.454248285,-0.5933009372839022,0.7106601207890693,0.7036335969438046
6.459024692,-0.5671483566570299,0.7309684377188138,0.7266018920664957
6.463801098,-0.5401969838381933,0.7532028075805475,0.7486094578523808
6.468577504,-0.5129739121719735,0.7776583734553651,0.7697321210979012
6.473353858,-0.485996684583294,0.8045940697400378,0.7900634037863986
6.478130264,-0.45976618028692273,0.834227934855138,0.8097105591958504
6.482906671,-0.43475969916379376,0.8667328209130178,0.8287901469582732
6.487683077,-0.4114243178720594,0.9022325579964543,0.8474232323476558
6.492459483,-0.3901705903565861,0.9407986270263196,0.8657303034223498
6.497235889,-0.37136666330240453,0.9824473904156084,0.8838260064462182
6.502012296,-0.3553328743656102,1.0271379240833973,0.9018138051168316
6.506788702,-0.34233689789176036,1.0747704882583555,0.919780672411802
6.511565108,-0.3325894993891136,1.1251856681140664,0.9377919252849327
6.516341514,-0.3262409562126588,1.1781642088057378,0.9558863120093191
6.521117921,-0.323378197610504,1.2334275629507336,0.9740714596912059
6.525894327,-0.3240227123646874,1.2906391619775106,0.9923197853996562
6.530670733,-0.32812926663860886,1.3494064160330543,1.010564968532191
6.535447139,-0.33558546828619956,1.4092834403278551,1.028699074546755
6.540223546,-0.3462122067766621,1.4697744990074404,1.046570411136722
6.544999952,-0.35976499001644113,1.5303381509266998,1.0639821874262458
6.549776358,-0.37593619063424916,1.5903920749909417,1.0806920349475266
6.554552764,-0.39435820464803295,1.6493185458417838,1.0964124361684193
6.559329171,-0.4146075148068199,1.7064705234481468,1.1108120923150442
6.564105577,-0.43620963932624335,1.761178312543743,1.123518247334475
6.568881931,-0.45864493434500525,1.8127567398729283,1.134119969250786
6.573658337,-0.4813552054532901,1.8605127890042354,1.142172374115026
6.578434796,-0.5037510703915841,1.9037536242289426,1.147201761491434
6.58321115,-0.525220001822809,1.9417949269441197,1.1487116142063385
6.587987556,-0.5451349662457232,1.973969460043946,1.146189399150714
6.592763962,-0.5628635628872976,1.9996357683119104,1.139114090491967
6.597540369,-0.5777775549786611,2.0181869157448706,1.1269643219128376
6.602316775,-0.5892626753485004,2.0290591543048224,1.1092270606765127
6.607093181,-0.596728578914982,2.031740412963461,1.0854066836885587
6.611869587,-0.599618806577488,2.0257784912669483,1.0550343245561984
6.616645994,-0.597420618368862,2.0107888382000767,1.017677351143378
6.6214224,-0.5896745487251789,1.9864617950790004,0.9729488254262023
6.626198806,-0.5759835336064512,1.9525691807631262,0.9205167916298891
6.630975212,-0.5560214582181782,1.9089700988202014,0.8601132346801318
6.635751619,-0.5295409754560997,1.8556158494899377,0.7915425489552735
6.640528025,-0.496380449055928,1.7925538344018779,0.7146893572862956
6.645304431,-0.4564698818203208,1.7199303490657047,0.6295255222920217
6.650080837,-0.40983569819820764,1.637992167282553,0.536116196670774
6.654857244,-0.3566042618624366,1.5470868329801,0.43462476621865637
6.65963365,-0.2970040227223979,1.4476615886913238,0.32531654929068066
6.664410056,-0.23136620395589622,1.340260886049186,0.2085611292925227
6.669186462,-0.16012395805279456,1.2255224422510558,0.08483321268192964
6.673962817,-0.08380994139716479,1.1041718273866599,-0.04528807607678498
6.678739223,-0.0030522793900815393,0.9770155906836403,-0.18112152914104057
6.683515629,0.08143108172660582,0.8449329588740939,-0.3218878610784667
6.688292035,0.16883961467968822,0.7088661666888264,-0.46671539974187204
6.693068442,0.2582989944748061,0.5698095075300381,-0.614647446149261
6.697844848,0.3488713500507345,0.42879722120045616,-0.7646512552674045
6.702621254,0.4395668819379909,0.2868903647012323,-0.9156285559481585
6.70739766,0.5293567166360145,0.14516284108154592,-1.0664274935646627
6.712174067,0.6171868421171198,0.004686789672640932,-1.215855843972799
6.716950473,0.70199294360474,-0.13348243173257082,-1.3626953132883868
6.721726879,0.7827159349682274,-0.2683214167455441,-1.5057167057412804
6.726503285,0.8583179591977592,-0.3988537535268251,-1.6436957127596008
6.731266358,0.9277986120726243,-0.5241646435339858,-1.7754290517018727
6.736056098,0.9902111270225231,-0.6434147844840855,-1.8997506634940184
6.740832504,1.0446782470000304,-0.7558531990840729,-2.0155476659250415
6.745595577,1.090407501534544,-0.8608286921918749,-2.121775754396492
6.750385317,1.1267056045466042,-0.9577996297925983,-2.2174737451181334
6.755161723,1.1529916914291107,-1.0463417546484706,-2.3017769673574944
6.759924796,1.1688091227099053,-1.1261537862440458,-2.3739292312391473
6.764714535,1.173835596526566,-1.1970605964382515,-2.4332931252472525
6.769490889,1.167891333292371,-1.2590138060301326,-2.4793584323294224
6.774254014,1.150945123353741,-1.312089709702018,-2.511748494635797
6.779043702,1.1231180620673225,-1.3564845057350376,-2.5302244037718693
6.783820108,1.0846848363502641,-1.3925068806253762,-2.5346869452349465
6.788583233,1.0360724719889953,-1.420568075301796,-2.5251762814269236
6.793372921,0.9778565011465805,-1.4411696368640763,-2.5018694157445656
6.798149327,0.9107545634529233,-1.454889135015672,-2.4650755383583567
6.8029124,0.8356175101231376,-1.4623641925326838,-2.4152294091180035
6.807702139,0.7534181365532542,-1.464275240756188,-2.35288298085041
6.812478546,0.6652377222687008,-1.4613274608726774,-2.2786955039085224
6.817241619,0.5722506054005257,-1.454232406825376,-2.19342237830554
6.822031358,0.4757070599546222,-1.4436898240326552,-2.097903032994318
6.826807764,0.3769147768735365,-1.430370178581089,-1.9930481142382894
6.831570837,0.2772192741640639,-1.4148983941205497,-1.8798262588616967
6.836360577,0.17798357774970877,-1.39783925916119,-1.759250715826439
6.841136983,0.08056752393542833,-1.379684917457812,-1.6323660629316625
6.845900056,-0.01369296292804357,-1.3608447908409624,-1.5002352456606745
6.850689744,-0.10350626726685447,-1.3416382098012156,-1.3639271428274717
6.85546615,-0.18764481204825265,-1.3222899451596914,-1.2245048387280058
6.860229275,-0.26496379393900155,-1.3029287470807849,-1.0830147539185415
6.865018962,-0.3344186155324926,-1.2835889081850451,-0.940476756792156
6.869795369,-0.39508073078496947,-1.2642147781652944,-0.7978753465176898
6.874571775,-0.4461516492137009,-1.244668070670706,-0.6561519656420237
6.879348181,-0.48697487800719313,-1.2247377219138658,-0.516198468784304
6.884124587,-0.5170456179556853,-1.2041519869552095,-0.3788517432876369
6.88888766,-0.5360180681607967,-1.182592396044484,-0.24488944918002997
6.8936774,-0.5437102353971626,-1.1597091413873253,-0.11502682002892492
6.898453806,-0.5401061866522837,-1.135137425464055,0.010085555846212726
6.903216879,-0.525355727526193,-1.1085142764690512,0.12986307161461888
6.908006619,-0.49977153418859976,-1.0794953252467998,0.24378766469227736
6.912783025,-0.4638238114128288,-1.0477710416658967,0.35140771970040907
6.917546098,-0.41813259248933465,-1.0130819466695116,0.45233742358320916
6.922335837,-0.3634578371241264,-0.9752323487433984,0.5462556778681411
6.927112244,-0.300687519416785,-0.934102199228936,0.632904662371327
6.931875317,-0.23082392859662954,-0.8896567183472808,0.7120881319098695
6.936665056,-0.1549684296192045,-0.8419535111938315,0.7836695142422773
6.94144141,-0.07430494866999068,-0.7911469681077645,0.8475698645370419
6.946204535,0.009917539813279915,-0.7374898241563271,0.9037657195784419
6.950994223,0.09640324238479546,-0.6813318352841907,0.9522868835756249
6.955770629,0.18382820958184515,-0.6231156113101534,0.9932141667021223
6.960533754,0.2708591544124965,-0.5633697258875122,1.0266770875427185
6.965323442,0.3561721563707225,-0.5026992984192517,1.0528515419391478
6.970099848,0.4384709928671151,-0.44177431061588196,1.071957433704915
6.974862921,0.5165048548377609,-0.38131597915067367,1.0842562573852983
6.97965266,0.5890852204676751,-0.3220815543824596,1.090048619461414
6.984429067,0.6551016798131611,-0.2648479524440559,1.0896716818814194
6.989192139,0.7135365233437563,-0.21039465349793984,1.0834965103721237
6.993981879,0.7634779290270057,-0.15948631226982904,1.0719253094671097
6.998758285,0.8041316053710527,-0.11285552803465301,1.0553885263063036
7.003521358,0.834830771253023,-0.07118621038922669,1.0343418057722535
7.008311098,0.8550443767884939,-0.035097955113916675,1.009262780505216
7.013087504,0.864383492740245,-0.005131812152803616,0.9806476812127041
7.017850577,0.8626058191620715,0.018262213713615385,0.9490077559324672
7.022640264,0.849618287188711,0.03473563841787097,0.914865491736673
7.027416723,0.8254777508707564,0.044049715495262,0.8787506386973332
7.032179796,0.7903897882841373,0.04608122082794016,0.841196043488486
7.036969483,0.7447056524421989,0.04082569668515,0.8027333083748323
7.041745889,0.6889174325755719,0.02839811323540757,0.7638883000398912
7.046522296,0.6236515049797259,0.009030972471017919,0.7251765412260854
7.051298702,0.5496603697298488,-0.016930055534936414,0.6870985260496955
7.056075108,0.4678129849738401,-0.04903281272605157,0.6501350068106021
7.060838233,0.3790837240739715,-0.08672744210928578,0.6147423059958349
7.065627921,0.2845400924397831,-0.12937702911736912,0.5813477119717868
7.070404327,0.18532935043510532,-0.17626979764954118,0.5503450206517168
7.0751674,0.0826641963648795,-0.22663253148309995,0.5220902883090084
7.079957139,-0.02219233048957658,-0.27964487023729173,0.4968978627289384
7.084733546,-0.1279425622139231,-0.3344541182691684,0.4750367609499832
7.089496619,-0.23327036189376552,-0.3901902050970145,0.4567274615949773
7.094286358,-0.3368575597267958,-0.44598044724066227,0.4421391777481109
7.099062764,-0.4374004924325495,-0.5009637834456511,0.4313876722148602
7.103825837,-0.5336264701676494,-0.5543041872988037,0.42453367095907796
7.108615577,-0.6243099918321081,-0.6052030017622265,0.42158192295787994
7.113391983,-0.7082885256038447,-0.6529099870202744,0.42248094603157316
7.118168337,-0.7844776673333147,-0.6967329236972293,0.42712348866517486
7.122944744,-0.8518854860887266,-0.7360456653622037,0.43534772762577967
7.12772115,-0.9096258648770688,-0.7702945849807145,0.446939210302891
7.132497556,-0.9569306464626902,-0.7990034077043632,0.46163353892032377
7.137273962,-0.993160399961266,-0.8217764655838281,0.479119780808048
7.142050369,-1.017813633786302,-0.8383004472405355,0.49904457482697384
7.146813494,-1.0305342945982716,-0.8483447463942015,0.5210168893597066
7.151603181,-1.0311174100527907,-0.851760536981378,0.5446133728774399
7.156379587,-1.0195127551549892,-0.8484787193740737,0.5693842247959813
7.161142712,-0.995826447597457,-0.838506892211982,0.5948595027213608
7.1659324,-0.9603204062155795,-0.8219255081467411,0.6205557725626714
7.170708806,-0.9134096382293648,-0.7988833700692636,0.6459830004697846
7.175471879,-0.8556573548803774,-0.7695926179180946,0.670651580120637
7.180261619,-0.7877679510824983,-0.7343233457158684,0.6940793854061926
7.185038025,-0.7105779222899008,-0.6933979748179226,0.7157987368950944
7.189814431,-0.6250448300244847,-0.6471854932722177,0.7353631706623689
7.194590837,-0.5322344650996488,-0.5960956535100679,0.7523539004436185
7.199367244,-0.43330639318377956,-0.5405732021540544,0.7663858688686356
7.20414365,-0.3294980997731654,-0.4810921973668666,0.7771132906049921
7.208920056,-0.22210797978883517,-0.41815045166867565,0.7842345991897773
7.213696462,-0.11247743985487021,-0.3522641222898453,0.7874967197497923
7.218459535,-0.0019723980902926572,-0.2839624576381982,0.7866986014619338
7.223249275,0.10803552342242448,-0.21378269802738328,0.7816939563167399
7.228025629,0.21618781444718518,-0.1422651219787656,0.7723931642747122
7.232788754,0.32115760392969617,-0.06994822644437924,0.7587643188395221
7.237578442,0.42166761011298953,0.0026359698871614916,0.7408334009180573
7.242354848,0.5165072378827408,0.0749665068542164,0.7186835821717472
7.247131254,0.6045485656737384,0.1465379463753772,0.6924536716405574
7.25190766,0.6847609863460664,0.21686471014429967,0.6623357312140117
7.256684067,0.7562242921417062,0.28548527253133255,0.6285718967235842
7.261460473,0.8181400224801748,0.3519661802245992,0.5914504523159473
7.266236879,0.8698409242390974,0.415905862011007,0.5513012164870217
7.271013285,0.9107984066498362,0.476938186258543,0.5084903086250653
7.275789692,0.9406279064601502,0.5347357205972286,0.46341437486140236
7.280566098,0.9590921130813562,0.5890126480575066,0.41649436114210836
7.285342504,0.9661020375993455,0.6395272962271955,0.3681689294468613
7.29011891,0.9617159433394662,0.6860842403534773,0.3188876198354278
7.294895317,0.9461361886020826,0.7285359471886718,0.2691038664586425
7.299671723,0.9197040635145391,0.7667839331803074,0.21926797983073484
7.304448129,0.8828927317910684,0.8007794177526701,0.169820210381416
7.309224535,0.8362984138392491,0.8305234593704883,0.1211840091713356
7.314000942,0.7806299700632074,0.8560665684016624,0.07375960013098531
7.318777348,0.7166970629810302,0.877507796281968,0.027917974006820813
7.323553754,0.6453970943084192,0.8949933050623889,-0.016004592399228915
7.328330108,0.5677011280996019,0.9087144251423973,-0.057711396554972476
7.333106514,0.48463902266906517,0.9189052120630057,-0.09694946473843792
7.337882921,0.397284002174073,0.9258395160119187,-0.13351292651897217
