Time (s),X (m/s^2),Y (m/s^2),Z (m/s^2)
9.006686208,1.7628050854539218e+20,9.656768008477147e+19,-1.107532331152482e+20
9.016613208,1.7468591613794084e+20,9.563813047819685e+19,-1.0977825922012715e+20
9.026540208,1.7310633150171526e+20,9.471713456751877e+19,-1.0881217160738649e+20
9.036468208,1.715415963910891e+20,9.380461978449137e+19,-1.0785487199556534e+20
9.046395208,1.6999155432154936e+20,9.290051418576034e+19,-1.0690626341220345e+20
9.056323208,1.684560505529421e+20,9.20047464456559e+19,-1.0596625017855489e+20
9.066250208,1.6693493207288958e+20,9.111724584905251e+19,-1.0503473789437988e+20
9.076177208,1.654280475803745e+20,9.023794228429665e+19,-1.0411163342281769e+20
9.086105208,1.6393524746948654e+20,8.936676623620466e+19,-1.031968448753432e+20
9.096032208,1.6245638381332595e+20,8.850364877913234e+19,-1.0229028159681017e+20
9.105960208,1.6099131034805915e+20,8.764852157011775e+19,-1.0139185415058437e+20
9.115887208,1.5953988245711985e+20,8.680131684209813e+19,-1.0050147430376997e+20
9.125815208,1.581019571555504e+20,8.59619673972019e+19,-9.96190550125314e+19
9.135742208,1.566773930744776e+20,8.513040660011588e+19,-9.874451040751282e+19
9.145669208,1.5526605044571675e+20,8.430656837152775e+19,-9.78777557793563e+19
9.155597208,1.5386779108649887e+20,8.349038718164494e+19,-9.70187075643196e+19
9.165524208,1.5248247838431615e+20,8.268179804379205e+19,-9.61672833299938e+19
9.175452208,1.511099772818817e+20,8.188073650808868e+19,-9.532340176112124e+19
9.185379208,1.497501542622002e+20,8.108713865520926e+19,-9.448698264551411e+19
9.195306208,1.484028773337461e+20,8.03009410902263e+19,-9.365794686007325e+19
9.205234208,1.47068016015746e+20,7.95220809365384e+19,-9.283621635690594e+19
9.215161208,1.4574544132356178e+20,7.875049582988375e+19,-9.202171414954115e+19
9.225089208,1.4443502575416993e+20,7.798612391243979e+19,-9.121436429924054e+19
9.235016208,1.4313664327173263e+20,7.722890382700957e+19,-9.041409190140432e+19
9.244944208,1.4185016929325613e+20,7.647877471129475e+19,-8.962082307207175e+19
9.254871208,1.4057548067433257e+20,7.573567619225525e+19,-8.883448493451641e+19
9.264798208,1.3931245569496043e+20,7.499954838055499e+19,-8.805500560593597e+19
9.274726208,1.3806097404544103e+20,7.427033186509364e+19,-8.728231418423555e+19
9.284653208,1.3682091681234865e+20,7.354796770762326e+19,-8.651634073490424e+19
9.294581208,1.3559216646457275e+20,7.2832397437449535e+19,-8.575701627798487e+19
9.304508208,1.3437460683943182e+20,7.2123563046216925e+19,-8.50042727751372e+19
9.314436208,1.3316812312885828e+20,7.142140698277688e+19,-8.42580431167952e+19
9.324363208,1.3197260186565424e+20,7.072587214813849e+19,-8.351826110941836e+19
9.334290208,1.3078793090981888e+20,7.003690189050125e+19,-8.27848614628368e+19
9.344218208,1.2961399943494841e+20,6.935444000036939e+19,-8.205777977769053e+19
9.354145208,1.284506979147097e+20,6.867843070574762e+19,-8.133695253296343e+19
9.364073208,1.2729791810938811e+20,6.80088186674177e+19,-8.062231707361228e+19
9.374000208,1.2615555305250947e+20,6.734554897429535e+19,-7.99138115982911e+19
9.383927208,1.250234970375363e+20,6.6688567138866495e+19,-7.921137514717105e+19
9.393855208,1.2390164560463856e+20,6.6037819092702134e+19,-7.851494758985603e+19
9.403782208,1.2278989552753967e+20,6.5393251182051656e+19,-7.78244696133944e+19
9.413710208,1.2168814480043829e+20,6.475481016351418e+19,-7.713988271038713e+19
9.423637208,1.2059629262500725e+20,6.412244319978822e+19,-7.64611291671935e+19
9.433565208,1.1951423939747132e+20,6.349609785549973e+19,-7.578815205223458e+19
9.443492208,1.184418866957644e+20,6.287572209310846e+19,-7.512089520439584e+19
9.453419208,1.1737913726676618e+20,6.226126426889211e+19,-7.445930322153053e+19
9.463347208,1.163258950136192e+20,6.165267312900761e+19,-7.380332144906541e+19
9.473274208,1.152820649831271e+20,6.10498978056291e+19,-7.31528959687101e+19
9.483202208,1.1424755335323582e+20,6.045288781316194e+19,-7.2507973587271025e+19
9.493129208,1.1322226742059886e+20,5.9861593044532e+19,-7.186850182557159e+19
9.503056208,1.1220611558822642e+20,5.927596376754933e+19,-7.1234428907479564e+19
9.512984208,1.1119900735321814e+20,5.869595062134591e+19,-7.0605703749043356e+19
9.522911208,1.1020085329457932e+20,5.812150461288684e+19,-6.998227594773784e+19
9.532839208,1.092115650611202e+20,5.755257711355455e+19,-6.936409577182056e+19
9.542766208,1.0823105535943823e+20,5.698911985580533e+19,-6.875111414979913e+19
9.552694208,1.0725923794198266e+20,5.643108492989733e+19,-6.814328266001121e+19
9.562621208,1.0629602759520066e+20,5.5878424780688654e+19,-6.754055352031766e+19
9.572548208,1.0534134012776402e+20,5.533109220450422e+19,-6.6942879577910346e+19
9.582476208,1.0439509235887584e+20,5.478904034607078e+19,-6.635021429923584e+19
9.592403208,1.0345720210665662e+20,5.425222269551949e+19,-6.57625117600364e+19
9.602331208,1.0252758817660862e+20,5.372059308545573e+19,-6.5179726635509285e+19
9.612258208,1.0160617035015651e+20,5.319410568809565e+19,-6.460181419058541e+19
9.622186208,1.0069286937326335e+20,5.267271501246851e+19,-6.4028730270327505e+19
9.632113208,9.978760694512104e+19,5.2156375901684105e+19,-6.346043129044802e+19
9.642040208,9.8890305706915e+19,5.1645043530264674e+19,-6.289687422794714e+19
9.651968208,9.80008892306623e+19,5.113867340153992e+19,-6.233801661187136e+19
9.661895208,9.711928200812298e+19,5.063722134510384e+19,-6.178381651419339e+19
9.671823208,9.624540943978385e+19,5.014064351433163e+19,-6.123423254081438e+19
9.681750208,9.53791978239146e+19,4.964889638395498e+19,-6.0689223822688846e+19
9.691677208,9.45205743456952e+19,4.916193674769406e+19,-6.014875000707305e+19
9.701605208,9.366946706641309e+19,4.8679721715944325e+19,-5.961277124889674e+19
9.711532208,9.282580491272965e+19,4.820220871351625e+19,-5.9081248202258645e+19
9.721460208,9.198951766601499e+19,4.7729355477426635e+19,-5.855414201204579e+19
9.731387208,9.116053595175033e+19,4.72611200547398e+19,-5.803141430567685e+19
9.741315208,9.03387912289975e+19,4.679746080045774e+19,-5.751302718496971e+19
9.751242208,8.95242157799346e+19,4.63383363754581e+19,-5.699894321813304e+19
9.761169208,8.871674269945836e+19,4.588370574447903e+19,-5.648912543188183e+19
9.771097208,8.791630588485291e+19,4.543352817414917e+19,-5.5983537303676715e+19
9.781024208,8.7122840025525e+19,4.498776323106105e+19,-5.548214275408652e+19
9.790952208,8.633628059280605e+19,4.4546370779886125e+19,-5.4984906139273e+19
9.800879208,8.555656382982075e+19,4.4109310981530714e+19,-5.449179224359692e+19
9.810806208,8.478362674142157e+19,4.367654429133144e+19,-5.400276627234429e+19
9.820734208,8.401740708418853e+19,4.324803145728878e+19,-5.3517793844571865e+19
9.830661208,8.325784335649394e+19,4.282373351833731e+19,-5.303684098607061e+19
9.840589208,8.250487478863253e+19,4.240361180265067e+19,-5.2559874122446275e+19
9.850516208,8.175844133301663e+19,4.1987627925979595e+19,-5.2086860072315716e+19
9.860444208,8.10184836544358e+19,4.157574379002148e+19,-5.1617766040618205e+19
9.870371208,8.028494312038099e+19,4.116792158081974e+19,-5.115255961204058e+19
9.8802985,7.955776179143324e+19,4.076412376719144e+19,-5.069120874455499e+19
9.8902265,7.8836882411717e+19,4.036431309918195e+19,-5.023368176306828e+19
9.9001535,7.812224839941816e+19,3.996845260654536e+19,-4.977994735318198e+19
9.9100815,7.741380383736817e+19,3.957650559724893e+19,-4.932997455506217e+19
9.9200085,7.67114934636945e+19,3.918843565600001e+19,-4.8883732757418476e+19
9.9299365,7.601526266253882e+19,3.8804206642794004e+19,-4.844119169159148e+19
9.9398635,7.532505745484428e+19,3.842378269148178e+19,-4.800232142574761e+19
9.9497905,7.464082448921408e+19,3.8047128208355295e+19,-4.756709235918006e+19
9.9597185,7.396251103284265e+19,3.7674207870750425e+19,-4.713547521671476e+19
9.9696455,7.3290064962520154e+19,3.730498662566645e+19,-4.670744104321974e+19
9.9795735,7.2623434755711566e+19,3.693942968840189e+19,-4.628296119821664e+19
9.9895005,7.196256948171145e+19,3.657750254120639e+19,-4.586200735059319e+19
9.9994285,7.130741879287526e+19,3.621917093194829e+19,-4.544455147341513e+19
10.0093555,7.065793291592807e+19,3.586440087279744e+19,-4.503056583883535e+19
10.0192825,7.001406264335145e+19,3.5513158638923088e+19,-4.462002301309793e+19
10.0292105,6.937575932484937e+19,3.5165410767206253e+19,-4.421289585163462e+19
10.0391375,6.874297485889366e+19,3.4821124054965846e+19,-4.380915749425165e+19
10.0490655,6.811566168435006e+19,3.44802655586981e+19,-4.340878136040476e+19
10.0589925,6.74937727721858e+19,3.4142802592828785e+19,-4.301174114456096e+19
10.0689195,6.6877261617258955e+19,3.3808702728477573e+19,-4.261801081164536e+19
10.0788475,6.626608223019047e+19,3.3477933792233554e+19,-4.222756459257135e+19
10.0887745,6.5660189129319514e+19,3.315046386494089e+19,-4.1840376979852755e+19
10.0987025,6.5059537332742324e+19,3.28262612804936e+19,-4.1456422723296625e+19
10.1086295,6.44640823504356e+19,3.2505294624638927e+19,-4.107567682577439e+19
10.1185575,6.3873780176465035e+19,3.2187532733788914e+19,-4.069811453906911e+19
10.1284845,6.328858728128001e+19,3.1872944693839987e+19,-4.032371135979671e+19
10.1384115,6.2708460604095005e+19,3.1561499838999888e+19,-3.995244302539889e+19
10.1483395,6.213335754535921e+19,3.12531677506213e+19,-3.9584285510205964e+19
10.1582665,6.156323595931569e+19,3.094791825604156e+19,-3.921921502156751e+19
10.1681945,6.099805414665119e+19,3.064572142742808e+19,-3.885720799604893e+19
10.1781215,6.04377708472377e+19,3.034654758062886e+19,-3.849824109569193e+19
10.1880495,5.988234523296681e+19,3.0050367274027516e+19,-3.814229120433678e+19
10.1979765,5.933173690067786e+19,2.9757151307402215e+19,-3.778933542400472e+19
10.2079035,5.878590586518117e+19,2.9466870720787907e+19,-3.7439351071338594e+19
10.2178315,5.824481255237747e+19,2.917949679334133e+19,-3.7092315674100105e+19
10.2277585,5.770841779247409e+19,2.8895001042208227e+19,-3.6748206967721984e+19
10.2376865,5.717668281329831e+19,2.861335522139213e+19,-3.6407002891913724e+19
10.2476135,5.664956923370799e+19,2.8334531320623923e+19,-3.606868158731931e+19
10.2575415,5.612703905709903e+19,2.8058501564231352e+19,-3.573322139222583e+19
10.2674685,5.56090546650094e+19,2.7785238410007806e+19,-3.540060083932165e+19
10.2773955,5.509557881081915e+19,2.751471454807969e+19,-3.5070798652502966e+19
10.2873235,5.458657461354581e+19,2.7246902899771507e+19,-3.474379374372795e+19
10.2972505,5.408200555173472e+19,2.6981776616467923e+19,-3.4419565209917915e+19
10.3071785,5.358183545744405e+19,2.6719309078472098e+19,-3.409809232990506e+19
10.3171055,5.308602851032413e+19,2.645947389385959e+19,-3.377935456142662e+19
10.3270325,5.259454923179026e+19,2.6202244897327153e+19,-3.3463331538165563e+19
10.3369605,5.210736247928868e+19,2.594759614903596e+19,-3.3150003066838417e+19
10.3468875,5.162443344065554e+19,2.569550193344915e+19,-3.2839349124330553e+19
10.3568155,5.114572762856915e+19,2.5445936758163603e+19,-3.2531349854879384e+19
10.3667425,5.067121087509561e+19,2.5198875352735973e+19,-3.222598556730573e+19
10.3766705,5.020084932632805e+19,2.495429266750315e+19,-3.1923236732293743e+19
10.3865975,4.973460943711948e+19,2.471216387239733e+19,-3.162308397971964e+19
10.3965245,4.927245796590944e+19,2.447246435575585e+19,-3.1325508096029393e+19
10.4064525,4.8814361969644536e+19,2.423516972312599e+19,-3.103049002166531e+19
10.4163795,4.83602887987932e+19,2.400025579606501e+19,-3.073801084854118e+19
10.4263075,4.791020609245518e+19,2.3767698610935857e+19,-3.044805181756578e+19
10.4362345,4.746408177356551e+19,2.3537474417698832e+19,-3.01605943162145e+19
10.4461625,4.702188404419317e+19,2.3309559678699536e+19,-2.9875619876148937e+19
10.4560895,4.65835813809343e+19,2.3083931067453506e+19,-2.959311017088395e+19
10.4660165,4.614914253039993e+19,2.286056546742783e+19,-2.9313047013501534e+19
10.4759445,4.571853650479822e+19,2.2639439970819834e+19,-2.9035412354410676e+19
10.4858715,4.529173257761109e+19,2.2420531877333074e+19,-2.8760188279152443e+19
10.4957995,4.486870027936498e+19,2.2203818692950884e+19,-2.8487357006249492e+19
10.5057265,4.444940939349544e+19,2.19892781287076e+19,-2.8216900885099184e+19
10.5156545,4.403382995230491e+19,2.1776888099457466e+19,-2.7948802393909723e+19
10.5255815,4.362193223301254e+19,2.1566626722641117e+19,-2.7683044137678635e+19
10.5355085,4.3213686753895645e+19,2.1358472317049635e+19,-2.7419608846212923e+19
10.5454365,4.280906427052196e+19,2.115240340158618e+19,-2.715847937219022e+19
10.5553635,4.240803577207213e+19,2.0948398694025232e+19,-2.6899638689260175e+19
10.5652915,4.201057247775156e+19,2.0746437109769667e+19,-2.6643069890185593e+19
10.5752185,4.161664583329094e+19,2.0546497760605766e+19,-2.638875618502302e+19
10.5851455,4.122622750753456e+19,2.0348559953456267e+19,-2.6136680899342336e+19
10.5950735,4.083928938911505e+19,2.015260318913161e+19,-2.5886827472484827e+19
10.6050005,4.045580358321327e+19,1.9958607161079497e+19,-2.5639179455859393e+19
10.6149285,4.007574240840181e+19,1.9766551754133045e+19,-2.5393720511276384e+19
10.6248555,3.969907839357059e+19,1.9576417043257754e+19,-2.5150434409318613e+19
10.6347835,3.932578427493338e+19,1.9388183292297576e+19,-2.4909305027749052e+19
10.6447105,3.895583299311383e+19,1.9201830952720237e+19,-2.467031634995462e+19
10.6546375,3.858919769030938e+19,1.901734066236195e+19,-2.443345246342552e+19
10.6645655,3.822585170753172e+19,1.8834693244171616e+19,-2.419869755826956e+19
10.6744925,3.786576858192229e+19,1.8653869704954446e+19,-2.3966035925761e+19
10.6844205,3.750892204414088e+19,1.8474851234115092e+19,-2.37354519569234e+19
10.6943475,3.715528601582587e+19,1.8297619202400535e+19,-2.3506930141146055e+19
10.7042755,3.680483460712458e+19,1.8122155160642814e+19,-2.328045506483359e+19
10.7142025,3.645754211429217e+19,1.794844083850176e+19,-2.305601141008823e+19
10.7241295,3.611338301735751e+19,1.777645814320785e+19,-2.283358395342432e+19
10.7340575,3.5772331977854386e+19,1.76061891583053e+19,-2.2613157564514664e+19
10.7439845,3.5434363836616606e+19,1.743761614239549e+19,-2.239471720496834e+19
10.7539125,3.5099453611635573e+19,1.7270721527880794e+19,-2.21782479271395e+19
10.7638395,3.4767576495979004e+19,1.7105487919708946e+19,-2.196373487296689e+19
10.7737675,3.4438707855769174e+19,1.6941898094117945e+19,-2.175116327284369e+19
10.7836945,3.411282322821913e+19,1.6779934997381693e+19,-2.1540518444517425e+19
10.7936215,3.3789898319725625e+19,1.6619581744556507e+19,-2.1331785792019497e+19
10.8035495,3.346990900401773e+19,1.6460821618228576e+19,-2.112495080462408e+19
10.8134765,3.315283132036009e+19,1.6303638067262489e+19,-2.0919999055836054e+19
10.8234045,3.2838641471809913e+19,1.6148014705550885e+19,-2.0716916202407657e+19
10.8333315,3.2527315823526707e+19,1.5993935310765228e+19,-2.0515687983383773e+19
10.8432595,3.22188309011339e+19,1.5841383823107654e+19,-2.0316300219175633e+19
10.8531865,3.191316338913139e+19,1.5690344344063984e+19,-2.0118738810662683e+19
10.8631135,3.1610290129358094e+19,1.5540801135158034e+19,-1.992298973832223e+19
10.8730415,3.13101881195037e+19,1.53927386167074e+19,-1.972903906138679e+19
10.88296462,3.101283451166897e+19,1.5246141366580937e+19,-1.9536872917028962e+19
10.89289263,3.0718206610974015e+19,1.510099411895822e+19,-1.9346477519573942e+19
10.90281963,3.0426281874213798e+19,1.4957281763091284e+19,-1.9157839159739384e+19
10.91274762,3.013703790856002e+19,1.4814989342069064e+19,-1.8970944203902255e+19
10.92267463,2.9850452470308635e+19,1.4674102051584901e+19,-1.8785779093392196e+19
10.93260163,2.9566503463672054e+19,1.4534605238707569e+19,-1.860233034381107e+19
10.94252962,2.9285168939614732e+19,1.439648440065609e+19,-1.8420584544378487e+19
10.95245663,2.900642709473054e+19,1.4259725183578685e+19,-1.8240528357302977e+19
10.96238463,2.873025627016043e+19,1.4124313381336138e+19,-1.8062148517178556e+19
10.97231162,2.845663495054898e+19,1.3990234934289875e+19,-1.7885431830406316e+19
10.98223863,2.8185541763038347e+19,1.3857475928095179e+19,-1.7710365174640837e+19
10.99216663,2.791695547629804e+19,1.3726022592499827e+19,-1.753693549826102e+19
11.00209362,2.7650854999588864e+19,1.3595861300148339e+19,-1.7365129819864793e+19
11.01202163,2.7387219381859385e+19,1.3466978565391958e+19,-1.7194935227787018e+19
11.02194863,2.7126027810873475e+19,1.3339361043104432e+19,-1.7026338879639978e+19
11.03187662,2.686725961236762e+19,1.3212995527503708e+19,-1.6859328001875624e+19
11.04180363,2.661089424923653e+19,1.3087868950979723e+19,-1.669388988936885e+19
11.05173063,2.6356911320745607e+19,1.2963968382928323e+19,-1.6530011905021198e+19
11.06165862,2.610529056176908e+19,1.2841281028591272e+19,-1.6367681479384515e+19
11.07158563,2.5856011842052653e+19,1.2719794227902267e+19,-1.6206886110304207e+19
11.08151363,2.5609055165499834e+19,1.2599495454339006e+19,-1.6047613362581733e+19
11.09144062,2.536440066948104e+19,1.2480372313781223e+19,-1.5889850867655983e+19
11.10136863,2.512202862416465e+19,1.2362412543374459e+19,-1.5733586323303203e+19
11.11129563,2.4881919431869202e+19,1.2245604010399334e+19,-1.5578807493355028e+19
11.12122263,2.464405362643609e+19,1.2129934711146103e+19,-1.542550220743408e+19
11.13115063,2.440841187262192e+19,1.2015392769794277e+19,-1.5273658360706613e+19
11.14107763,2.417497496550949e+19,1.1901966437297258e+19,-1.5123263913651716e+19
11.15100562,2.3943723829936357e+19,1.1789644090271826e+19,-1.4974306891846451e+19
11.16093263,2.3714639519939854e+19,1.16784142298923e+19,-1.482677538576638e+19
11.17086063,2.3487703218217615e+19,1.1568265480789082e+19,-1.4680657550600913e+19
11.18078762,2.3262896235602575e+19,1.1459186589951214e+19,-1.4535941606082822e+19
11.19071463,2.304020001055136e+19,1.1351166425632702e+19,-1.4392615836331295e+19
11.20064263,2.2819596108645237e+19,1.1244193976262312e+19,-1.425066858970805e+19
11.21056963,2.2601066222102905e+19,1.1138258349356614e+19,-1.4110088278685893e+19
11.22049763,2.2384592169304326e+19,1.1033348770436006e+19,-1.3970863379729105e+19
11.23042463,2.217015589432466e+19,1.0929454581943419e+19,-1.3832982433185087e+19
11.24035262,2.1957739466477502e+19,1.0826565242165428e+19,-1.3696434043186692e+19
11.25027963,2.174732507986667e+19,1.0724670324155646e+19,-1.3561206877564568e+19
11.26020663,2.1538895052945752e+19,1.0623759514660258e+19,-1.342728966776891e+19
11.27013462,2.133243182808462e+19,1.052382261304574e+19,-1.3294671208799977e+19
11.28006163,2.112791797114215e+19,1.0424849530228802e+19,-1.3163340359146668e+19
11.28998963,2.092533617104424e+19,1.0326830287608676e+19,-1.3033286040732566e+19
11.29991662,2.0724669239366517e+19,1.022975501600193e+19,-1.2904497238868935e+19
11.30984463,2.0525900109920862e+19,1.0133613954579972e+19,-1.2776963002214187e+19
11.31977163,2.032901183834528e+19,1.0038397449809445e+19,-1.2650672442739409e+19
11.32969863,2.0133987601696555e+19,9.944095954395693e+18,-1.2525614735699427e+19
11.33962663,1.9940810698045424e+19,9.850700026229555e+18,-1.240177911960884e+19
11.34955363,1.9749464546074165e+19,9.75820032733764e+18,-1.2279154896222503e+19
11.35948162,1.95599326846764e+19,9.666587622836322e+18,-1.2157731430519849e+19
11.36940863,1.9372198772558987e+19,9.575852779889738e+18,-1.2037498150692356e+19
11.37933663,1.9186246587845837e+19,9.48598676667202e+18,-1.1918444548133634e+19
11.38926362,1.900206002768357e+19,9.396980651334058e+18,-1.1800560177431708e+19
11.39919063,1.881962310784883e+19,9.308825600975053e+18,-1.1683834656363135e+19
11.40911863,1.8638919962357023e+19,9.221512880619151e+18,-1.15682576658886e+19
11.41904563,1.8459934843072184e+19,9.135033852197437e+18,-1.1453818950149636e+19
11.42897363,1.8282652119317742e+19,9.049379973535556e+18,-1.1340508316466151e+19
11.43890063,1.8107056277487796e+19,8.964542797347291e+18,-1.122831563533443e+19
11.44882862,1.7933131920658612e+19,8.88051397023445e+18,-1.1117230840425267e+19
11.45875563,1.7760863768200004e+19,8.797285231693292e+18,-1.1007243928581882e+19
11.46868263,1.7590236655386247e+19,8.714848413127688e+18,-1.0898344959817417e+19
11.47861062,1.7421235533006225e+19,8.633195436869067e+18,-1.0790524057311904e+19
