Time (s),Acceleration x (m/s^2),Acceleration y (m/s^2),Acceleration z (m/s^2)
6.001713937,-1.3062741548586636,-0.7346527807838342,0.3840351350060029
6.00671397,-1.3066592770122314,-0.8696822363208937,0.36599595569809223
6.01171397,-1.3019204956614103,-0.9986521909696817,0.3580993498472078
6.01671397,-1.2921223629969625,-1.1205373326658774,0.3617843900314447
6.02171397,-1.2773610066449532,-1.234336416280828,0.37830052065171754
6.026713636,-1.2577630094153311,-1.3390821683646235,0.408682245198218
6.031713636,-1.2334841004269355,-1.433851901108186,0.4537268824959571
6.036712936,-1.2047076615309698,-1.5177787853369489,0.5139758092328468
6.041712936,-1.171643045126997,-1.5900636986054681,0.589699561554469
6.046712936,-1.1345236929127351,-1.649987529363193,0.6808871171467743
6.051712969,-1.0936050406884894,-1.6969237827177992,0.7872396211973455
6.056712969,-1.049162192419379,-1.7303512985133023,0.908168755509918
6.061713469,-1.0014873473531787,-1.7498668593153415,1.0427998807645098
6.066713435,-0.950886967011631,-1.755197435618982,1.1899800083654728
6.071713435,-0.8976786743299161,-1.7462117894482383,1.3482905810904666
6.076713435,-0.8421878851014672,-1.7229311368884057,1.5160649613185873
6.081713468,-0.7847441818029006,-1.6855385564143528,1.6914104428520413
6.086713468,-0.7256774509319484,-1.6343868245438107,1.8722345187557783
6.091713468,-0.6653138161359723,-1.5700043646028599,2.0562750550999898
6.096713468,-0.6039714098465735,-1.4930990092177758,2.241133940945962
6.101713468,-0.5419560354120371,-1.4045593031539991,2.4243137103027963
6.106713468,-0.47955677963834337,-1.3054531104789884,2.6032565639854406
6.111713434,-0.41704164236401614,-1.1970233383511584,2.775385159954384
6.1167134,-0.35465325576898094,-1.0806806480012918,2.9381444910037207
6.1217134,-0.2926047722673686,-0.9579930899398975,3.089044129401983
6.126713433,-0.23107600655077626,-0.8306726726401975,3.2257000900361144
6.131713466,-0.17020992480431787,-0.700558948829133,3.345875547869822
6.136713466,-0.11010958230315404,-0.5695997776937967,3.4475196438608045
6.141713466,-0.05083561932831818,-0.439829491707024,3.5288036282073354
6.146713432,0.007595566024765845,-0.31334476108838055,3.5881536231418534
6.151713398,0.06521284242073462,-0.19227850549624334,3.6242793406251868
6.156713364,0.12209043788898119,-0.07877224992024087,3.6361981626028332
6.161713364,0.17834697321169607,0.02505264156866245,3.6232540805019258
6.166713397,0.23414331847866945,0.11712439566607627,3.585131092670199
6.17171343,0.2896791732738373,0.19545045189973795,3.521860769441532
6.176713796,0.3451882974664273,0.25814680403580764,3.4338238117976196
6.181713796,0.40093235382380804,0.30346659647264357,3.3217455481904676
6.186714462,0.4571933646748692,0.3298275283357956,3.1866854325591043
6.191714428,0.5142648315490279,0.33583764224909096,3.0300207228356184
6.196714428,0.5724416178597265,0.3203191050752406,2.8534246315642755
6.201714428,0.6320087488851476,0.282329623287554,2.6588393474490783
6.206714461,0.6932293389529527,0.22118117502694512,2.4484444280290116
6.211714461,0.7563319110196033,0.13645578322513405,2.224621158713889
6.216714461,0.8214974264398264,0.02801809834991251,1.989913560935695
6.221714427,0.8888463896529571,-0.1039753956812107,1.7469868096124817
6.226714493,0.9584264300148019,-0.2590706940531351,1.498583883149476
6.231714459,1.0302007870983112,-0.4365141998810924,1.2474813124185196
6.236714459,1.104038133516876,-0.63525432460053,0.996444913905637
6.241714459,1.1797041597252758,-0.8539467733967888,0.7481863841309235
6.246714492,1.2568553189499017,-1.0909634866054632,0.505321597394335
6.251714525,1.3350350882317268,-1.3444051629252394,0.2703313880548335
6.256714558,1.413673043779608,-1.6121172413096765,0.04552551445694632
6.261714558,1.4920869754748773,-1.891709165498209,-0.16698960055423004
6.266714558,1.5694881771684157,-2.1805767000358895,-0.3653388698332674
6.271714524,1.6449899486575168,-2.47592701244457,-0.5479019140715337
6.276714524,1.7176192366354712,-2.774806186437737,-0.7133315473681572
6.281714524,1.7863312325985512,-3.0741287887691673,-0.8605672232204568
6.286714557,1.8500266433310937,-3.3707090800086643,-0.9888433894887197
6.291714557,1.907571259739903,-3.6612934393556165,-1.0976927985098632
6.296714557,1.957817375067063,-3.942593566812623,-1.186944910196191
6.301714557,1.9996265447222406,-4.211320032466477,-1.2567196087653716
6.306714557,2.0318931376063185,-4.464215760495442,-1.3074165257202848
6.311714557,2.0535681031772084,-4.698089062128849,-1.339700322446029
6.316714523,2.06368236954422,-4.909845864420507,-1.3544823356464952
6.321714523,2.06136929497891,-5.096520818226446,-1.35289902770735
6.326714523,2.045885617549068,-5.25530700764633,-1.336287711418282
6.331714556,2.016630384403156,-5.383584023233152,-1.3061600343471735
6.336714556,1.9731613930882128,-5.478944201580164,-1.26417371391397
6.341714556,1.9152087414251138,-5.539216873605465,-1.2121030123705858
6.346714522,1.8426851580617347,-5.562490501919923,-1.1518084339957328
6.351714522,1.755692869818101,-5.547132622598044,-1.0852061163033018
6.356714522,1.654526850875801,-5.491807536564552,-1.0142373730183638
6.361714555,1.5396743899379064,-5.395491718722651,-0.9408388284437078
6.366714588,1.411811002754244,-5.257486927550134,-0.8669135603414054
6.371714588,1.2717928071586548,-5.077431003911885,-0.794303641713748
6.376714488,1.1206455637250705,-4.855306346103651,-0.7247644408137098
6.381714488,0.9595506641212969,-4.5914460402511725,-0.659941002708241
6.386714488,0.7898284174933731,-4.28653761313698,-0.6013467940373123
6.391714488,0.6129190395896312,-3.941624360457041,-0.5503450451729595
6.396714454,0.4303617883098141,-3.5581041897009666,-0.5081328714878796
6.401714454,0.2437727131434446,-3.137725905761183,-0.4757282991946705
6.406714454,0.05482149567803046,-2.682582861294323,-0.4539602631731726
6.411714487,-0.13479214453907257,-2.1951038941566146,-0.44346158709698397
6.416714487,-0.32336201828000505,-1.6780414809528303,-0.4446649030932465
6.421714487,-0.5091985713715776,-1.1344570480128082,-0.4578014216568232
6.426716187,-0.6906511187890584,-0.5677033981242203,-0.48290242384186793
6.431716187,-0.8661288390606819,0.018595767049733536,-0.519803316831901
6.436716187,-1.0341202055031524,0.6205692224313853,-0.5681500701595217
6.44171622,-1.1932105831856725,1.2341244548738803,-0.627407832531337
6.44671622,-1.342097777667139,1.8549766842535786,-0.6968715181807354
6.45171622,-1.4796053805808165,2.478680556459949,-0.7756781466927868
6.45671622,-1.6046938152886263,3.1006643524608872,-0.8628207206975009
6.46171622,-1.7164690410605061,3.716266514799985,-0.9571634305834006
6.46671622,-1.814188925172216,4.320774250538907,-1.0574579829367734
6.471716186,-1.8972673378141858,4.909463928833787,-1.162360858129152
6.476716186,-1.965276063660998,5.477642952709186,-1.2704513109025886
6.481716186,-2.0179446554525433,6.020692748617832,-1.3802499348949824
6.486716219,-2.0551583784756424,6.5341124844767595,-1.4902376172821945
6.491716252,-2.076954410393893,7.013563097543998,-1.5988747131320065
6.496716252,-2.0835164689577987,7.4549111882245445,-1.704620271221394
6.501716218,-2.0751680417686638,7.854272314994579,-1.8059511447996106
6.506716184,-2.0523643889221383,8.208053209264628,-1.9013808228360436
6.51171615,-2.015683482649916,8.51299241731253,-1.9894778199718215
6.516716116,-1.9658160395524735,8.76619886966449,-2.0688834663781153
6.521716116,-1.9035547919588496,8.965187876748265,-2.13832894128893
6.526716149,-1.8297831363506463,9.10791405335333,-2.196651395486191
6.531716182,-1.745463289386741,9.192800683308189,-2.242809008292961
6.536716215,-1.6516240763706047,9.218765049866336,-2.275894823951608
6.541716215,-1.549348473160183,9.185239277064953,-2.295149211137266
6.546716215,-1.4397610201547804,9.092186253734438,-2.2999707884112426
6.551716181,-1.3240152252870847,8.940110246070317,-2.2899256584474745
6.556716181,-1.2032810710006452,8.730061847806398,-2.2647547958605205
6.561716181,-1.0787327373604236,8.463636969706897,-2.2243794385277953
6.566716214,-0.9515366494812475,8.14296963236444,-2.1689043414869804
6.571716214,-0.8228399525575187,7.770718397559771,-2.098618766691731
6.57671448,-0.6937595125340822,7.3500463526464825,-2.01399510182585
6.581714446,-0.56537153563278,6.884594648266394,-1.9156850275949966
6.586714412,-0.4387018960378934,6.378449680834196,-1.8045131859938828
6.591714378,-0.31471725794614763,5.836104106405642,-1.6814683424178982
6.596714378,-0.1943170751770696,5.262411970634182,-1.547692082077072
6.601714411,-0.07832654751079211,4.662538339414742,-1.4044651349573545
6.606714444,0.032509393182537795,4.0419039153064755,-1.253191481498091
6.611714477,0.13753100264500182,3.4061252246708467,-1.0953804504835194
6.61671451,0.23616749633677567,2.7609510584666843,-0.9326270785314124
6.62171451,0.3279396326758294,2.112195944664041,-0.7665910542292811
6.626715643,0.41246107811971766,1.4656715211564317,-0.598974615899807
6.631715609,0.4894385354568241,0.8271167637028928,-0.4314998043865872
6.636715609,0.5586706258723466,0.2021281019503499,-0.2658854833252458
6.641715609,0.6200455243556231,-0.4039094757808795,-0.10382452364083233
6.646715642,0.6735373590264498,-0.9858891774735751,0.053038490355629124
6.651715642,0.7192014002050898,-1.5390458433184735,0.2031287252734354
6.656715642,0.7571680862298099,-2.059014884818773,0.34496146667613237
6.661715642,0.7876359610519411,-2.5418855815697947,0.477161144870995
6.666715642,0.8108636332466779,-2.9842476545217473,0.5984787711062736
6.671715642,0.8271609055865481,-3.3832301315496647,0.7078075209479954
6.676715608,0.8368792659417265,-3.73653165175863,0.8041961827055601
6.681715608,0.8404019704997324,-4.042441521041081,0.8868601797215068
6.686715608,0.8381339849881896,-4.2998510351077455,0.9551898896804064
6.691715641,0.8304920741224544,-4.508254826056694,1.0087560325248135
6.696715641,0.8178953397995158,-4.667742254804985,1.0473119826138557
6.701715641,0.8007565024209514,-4.7789791463459315,1.0707929696575145
6.706715607,0.7794741972228991,-4.843180427229939,1.0793122482134268
6.71171474,0.7544265200997833,-4.862074458301636,1.0731544200399568
6.716713873,0.7259660072257366,-4.8378600496640285,1.0527661779438562
6.721713039,0.6944161726794521,-4.773157291463678,1.0187448020917853
6.726712139,0.6600696621280272,-4.6709534286219565,0.9718247822518328
6.731712139,0.6231880124625706,-4.534545051564152,0.9128629655570372
6.736712139,0.5840029403293497,-4.36747787686903,0.8428226424109716
6.741712139,0.5427190194134526,-4.17348536178821,0.7627569848968346
6.746712139,0.4995175500180512,-3.956427341392255,0.673792242437664
6.751712105,0.4545613779994525,-3.720229800003867,0.577111077801655
6.756712071,0.408000385782958,-3.4688267923594083,0.47393639325451814
6.761712071,0.35997735716515705,-3.20610541794141,0.365515953656159
6.766712071,0.3106339102436831,-2.935854627676261,0.25310806324106594
6.771712104,0.26011619903621425,-2.661718509156953,0.13796849820953644
6.776710937,0.2085801037903026,-2.387154558311979,0.021338840105426058
6.781710937,0.1561956618387333,-2.115397305929134,-0.0955637030384181
6.786710903,0.10315053373976033,-1.8494275308941786,-0.21155495797098361
6.791710903,0.04965235142516602,-1.5919471625419914,-0.32549095458564686
6.796710903,-0.004070146288139922,-1.345359855652795,-0.4362736758181007
6.801710069,-0.05776722341562422,-1.1117571162037347,-0.5428555064416085
6.806710069,-0.11116947316005502,-0.8929097664717283,-0.6442425323001725
6.811710069,-0.16399027657003135,-0.6902644662535833,-0.7394968658269943
6.816710069,-0.21592926198156298,-0.5049449529101527,-0.827738188163039
6.821710069,-0.2666765960814585,-0.337757624846442,-0.908144703740561
6.826711635,-0.31591790952675747,-0.18920106837775572,-0.9799537008790798
6.831711601,-0.36333964251409756,-0.05947911444905628,-1.0424619025809887
6.836711601,-0.40863458917346346,0.051482992687664555,-1.095025776071487
6.841711601,-0.4515074238470603,0.1440197301696433,-1.1370619484464928
6.846711634,-0.49168000569547343,0.21870414264124693,-1.1680478497513305
6.851711634,-0.528896278512965,0.27632479758849926,-1.1875226748003298
6.856711634,-0.562926608080828,0.3178612353770665,-1.1950887224779123
6.861712467,-0.593571428249246,0.3444582853463796,-1.1904131379009626
6.8667133,-0.6206640980276645,0.35739960346715866,-1.1732300502783588
6.871714166,-0.6440729042652087,0.3580807698777737,-1.1433430688020532
6.876715099,-0.6637021770976106,0.3479822666290906,-1.1006280715499166
6.881715132,-0.6794925175854327,0.32864263775506153,-1.0450361994669417
6.886715132,-0.6914201685521159,0.30163211590544237,-0.9765969503369724
6.891715132,-0.6994955900899211,0.26852698287051247,-0.8954212569963332
6.896715132,-0.7037613292837188,0.2308849161279668,-0.8017044295333612
6.901715132,-0.7042892972572129,0.19022156064213996,-0.695728841526924
6.906715132,-0.7011775833653477,0.14798855463770963,-0.5778662436474343
6.911715098,-0.6945469448068542,0.1055532292767553,-0.4485795922685908
6.916715098,-0.6845371100048842,0.06418019361033594,-0.30842428455768756
6.921715098,-0.6713030266655632,0.025015005819950555,-0.15804869411825997
6.926715131,-0.6550111718046827,-0.01092988251850675,0.0018060967075883248
6.931715131,-0.6358360228481518,-0.04278674236015782,0.17030746824869938
6.936715131,-0.6139567679078205,-0.06984160309173544,0.3465334312009032
6.941715097,-0.5895543110635079,-0.09154060140765463,0.5294758688151814
6.946715063,-0.5628086062107164,-0.10749357516086344,0.7180449100079751
6.951715896,-0.5338963320007422,-0.1174748776137007,0.911074461415238
6.956715896,-0.5029889019000621,-0.12142143392810437,1.1073288932631036
6.961715929,-0.4702507883737559,-0.1194281098960888,1.30551083848522
6.966715962,-0.43583812890031315,-0.11174051184537999,1.5042700295093439
6.971715995,-0.39989757386497155,-0.09874538544595991,1.702213065604999
6.976714428,-0.3625653326692633,-0.08095882852421987,1.8979139788827233
6.981714428,-0.32396637546430246,-0.05901257707529561,2.089925451750882
6.986714394,-0.2842137543578592,-0.033638662158290734,2.2767905341722834
6.99171436,-0.2434080193412767,-0.0056527661467590095,2.457054714633887
6.99671436,-0.20163671910604353,0.024063371596746323,2.629278211685059
7.001714393,-0.15897399361633666,0.05458013791710872,2.792048369460433
7.006714426,-0.11548028230636467,0.08493845471174394,2.943992056870361
7.011714426,-0.07120218800459237,0.11416805846264536,3.083787982898945
7.016714426,-0.026172551221952764,0.14130531280467054,3.210178847824467
7.021714392,0.019589198728130156,0.1654102418187949,3.321983251860861
7.026714258,0.06607634129382117,0.1855825038033001,3.418107279714597
7.031714224,0.11329373332543079,0.20097606245891858,3.497555673694446
7.036713557,0.16125617381682447,0.21081235291632153,3.559442501490641
7.04171359,0.20998619867634527,0.21439178210115892,3.603001219660898
7.046713623,0.2595112547583215,0.21110344522544036,3.6275940318093918
7.051713189,0.30986022382939443,0.20043298190251493,3.63272044206213
7.056713189,0.36105929412389504,0.18196853614245628,3.6180249092254964
7.061713189,0.4131272087821554,0.1554048241489652,3.583303513591364
7.066712255,0.4660699556802312,0.12054535226619807,3.52850955509459
7.071711855,0.5198750006582531,0.07730286430682175,3.453758007070273
7.076711855,0.5745052043994648,0.025698132128190356,3.3593287532867335
7.081712521,0.6298926003580375,-0.03414276561058181,3.245668536777953
7.086712454,0.6859322449605731,-0.10199250594700328,3.1133915472334004
7.091712454,0.7424763792181993,-0.17752773650371237,2.9632785698042547
7.096712587,0.7993291600673117,-0.2603352441848197,2.7962746131558776
7.101712453,0.8562422275143701,-0.34991887815519657,2.6134849296927087
7.106712453,0.9129113679682176,-0.44570703445532484,2.416169337238543
7.111712419,0.9689745142367739,-0.5470605224069708,2.205734750015005
7.116712385,1.0240112893306326,-0.6532806493164641,1.9837258285472508
7.121712385,1.0775442566270326,-0.7636173776326958,1.7518136644849787
7.126712418,1.1290419862082586,-0.8772774260391165,1.5117824288342938
7.131712318,1.1779239897732519,-0.9934322021530246,1.265513932255174
7.136712218,1.223567517712227,-1.1112254695222405,1.0149700752103126
7.141712218,1.2653161543858311,-1.229780665896586,0.7621732051708997
7.146712184,1.3024900931665235,-1.348207803912253,0.5091844492133022
7.15171215,1.3343979223468478,-1.4656098997746918,0.25808015431573406
7.156712116,1.360349706979104,-1.5810888902711033,0.010926644415452663
7.161712116,1.3796711102891657,-1.693751013135745,-0.23024640945230734
7.166712149,1.3917182618976927,-1.802711639962589,-0.4634736165733717
7.171712182,1.395893049415314,-1.9070995641896007,-0.6868820098064271
7.176712315,1.3916584860735792,-2.006060759133319,-0.8987191384381428
7.181712315,1.3785537911092038,-2.098761632868007,-1.097380475356114
7.186712981,1.3562088128999452,-2.1843918182278204,-1.281435457423686
7.191712947,1.3243574284921436,-2.2621665474148984,-1.449651461899918
7.196712947,1.2828495677012477,-2.331328671243682,-1.6010150387349642
7.201713413,1.2316615345846733,-2.3911503923032686,-1.734749767857506
7.206713446,1.1709043313129637,-2.440934788615882,-1.8503301889366846
7.211713446,1.1008297264761955,-2.4800172091665007,-1.9474913545518928
7.216714346,1.0218338506949343,-2.507766624874246,-2.0262336817626014
7.221714712,0.9344581485672724,-2.5235870188847906,-2.086822916123595
7.226716378,0.8393875693906855,-2.526918899585124,-2.1297851692145273
7.231715711,0.7374459395803793,-2.517241018708518,-2.155897137771003
7.236715777,0.6295885246775428,-2.4940723739970023,-2.166171751471678
7.241715777,0.5168918548655823,-2.4569745691167313,-2.16183962031167
7.246715677,0.4005409520966099,-2.4055545916500853,-2.144326755951514
7.251715843,0.28181415706090907,-2.339468053211127,-2.115229120647155
7.256715476,0.1620658083503996,-2.258422915250358,-2.0762846094734453
7.261715476,0.04270707256726847,-2.1621837014260765,-2.029343094977168
7.266715476,-0.07481473835333949,-2.0505761739170794,-1.9763351590713905
7.271715442,-0.1890379984974769,-1.9234924280120416,-1.9192401090229023
7.276715442,-0.2985093665955271,-1.7808963379952054,-1.8600538290910247
7.281715575,-0.4018067643130461,-1.6228292689454236,-1.80075696336004
7.286715708,-0.4975623505126512,-1.4494159543984262,-1.743283864289681
7.291715708,-0.5844851185721827,-1.2608704289994166,-1.6894926802238923
7.296715708,-0.661382757413727,-1.0575018976648796,-1.6411368977264262
7.301715708,-0.7271824307449747,-0.8397204174043414,-1.5998386051281706
7.306715708,-0.7809501433286354,-0.6080422639390303,-1.5670637054585956
7.311715708,-0.8219083796830187,-0.36309485196693,-1.5440992815640033
7.316715674,-0.8494517212744217,-0.1056210750675295,-1.532033302567675
7.321715674,-0.8631601741416569,0.16351707097924836,-1.5317368554495918
7.326715674,-0.8628099705582203,0.4433357184445124,-1.5438490836852228
7.331715707,-0.8483816458073057,0.7327273464587688,-1.5687650115650162
7.336715707,-0.8200652339452513,1.0304601172947616,-1.6066264235571128
7.341715707,-0.778262473671528,1.335178448226995,-1.6573159496537142
7.346715673,-0.723585965612842,1.6454049219072726,-1.7204544785483542
7.351715639,-0.6568552731242084,1.9595436199792333,-1.7954019813358726
7.356715605,-0.579090007321087,2.2758849449733525,-1.8812617820464619
7.361715605,-0.49149998119784366,2.5926119758232575,-1.9768882619864916
7.366715605,-0.39547255619571875,2.9078083838073403,-2.0808979366711946
7.371715638,-0.2925573372908003,3.2194679191118247,-2.191683799782179
7.376713971,-0.18444839995756035,3.525505463625243,-2.3074327890798587
7.381714004,-0.07296425486357286,3.8237696324591517,-2.4261461942915763
7.386714004,0.039974225281728136,4.112056894289769,-2.545662795710537
7.391714004,0.1523676766184685,4.388127168361754,-2.663684493557433
7.39671397,0.26216365880336767,4.649720843436867,-2.7778041616324494
7.40171397,0.3672833466575871,4.894577150430502,-2.8855354347363407
7.40671437,0.46564921978457224,5.120453804967505,-2.984344118439408
7.411714403,0.5552134593444162,5.325147817611342,-3.071680892481871
