Time (s),Acceleration x (m/s^2),Acceleration y (m/s^2),Acceleration z (m/s^2)
10.0013741,-7.695263386,-7.927501202,6.692092896
10.00637406,-7.822156429,-8.45422554,5.447108269
10.01137403,-7.192481041,-8.260294914,5.286696434
10.01637403,-6.232406139,-6.871658325,8.461407661
10.02137406,-5.076006889,-5.545270443,12.65365505
10.02637409,-2.427720547,-4.189853191,17.0090065
10.03137413,-1.479616642,-4.441244125,15.29715347
10.03637416,-1.072602391,-5.143044472,9.172486305
10.04137416,-0.9074024558,-5.420772076,5.858911037
10.04637412,-0.6320692301,-5.296273232,2.501940727
10.05137343,-0.5410895944,-4.937143326,0.9720458984
10.05637276,-0.1053448766,-4.355052948,0.174776718
10.06137209,0.4596867263,-3.725377798,-0.1867477298
10.06637146,0.5674257874,-3.145981073,-0.01197100803
10.07137146,0.605733037,-2.525882721,0.8643068075
10.07637056,0.7015010715,-1.326387763,3.478775024
10.08136986,0.3734954596,-0.6440402865,5.720046997
10.08636892,-0.6847416759,-0.5339069963,7.307403088
10.09136799,-1.086967587,-1.314416766,5.643432617
10.09636709,-1.474828243,-2.695871115,1.094150186
10.10136646,-1.731007814,-3.617638826,-1.352723956
10.10636559,-2.205059767,-4.352658749,-2.695871115
10.11136562,-3.093308687,-5.305850029,-3.236960649
10.11636539,-4.596867085,-7.225999832,-3.751713991
10.12136539,-5.866093636,-8.681674957,-3.892971992
10.12636469,-8.485349655,-11.28417206,-3.220201254
10.13136469,-10.34803867,-13.0606699,-1.771709204
10.13636469,-13.8172369,-16.37215042,2.990357876
10.14136472,-16.9108448,-19.32898903,10.67365074
10.14636472,-19.7479744,-22.64735222,20.92592049
10.15136432,-20.80621147,-26.21022415,25.62364388
10.15636432,-20.39440918,-30.5461235,22.08710861
10.16136432,-19.16378975,-35.11216354,15.50544834
10.16636432,-17.25082207,-40.96838379,8.061576843
10.17136389,-16.36257362,-44.3923912,5.55484724
10.17636385,-15.54375553,-49.74103546,1.098938584
10.18136385,-15.38813305,-53.20783997,-2.885013103
10.18636298,-10.20678139,-56.08836365,-16.83662415
10.19136215,-9.912294388,-55.02533722,-16.27638245
10.19636128,-9.912294388,-55.02533722,-16.27638245
10.20136108,-9.912294388,-55.02533722,-16.27638245
10.20636172,-8.320150375,-45.58709717,-13.4533186
10.21136238,-6.514922142,-38.45925903,-10.92743587
10.21636305,-4.402936935,-28.40810013,-5.863699436
10.22136308,-3.572149038,-24.10063362,-2.992752075
10.22636398,-2.387019157,-18.37849045,1.144428372
10.23136465,-2.00873518,-15.5892458,2.748543501
10.23636555,-1.369483352,-12.33283234,3.960009575
10.24136645,-1.00556469,-10.75744724,3.433285236
10.24636735,-0.7374141216,-9.797372818,2.353500366
10.25136798,-0.538695395,-9.24191761,1.118092179
10.25636821,-0.2466027737,-8.76068306,0.1125274822
10.26136821,-0.05506663769,-8.411129951,-0.7374141216
10.26636848,0.988805294,-7.824550629,-1.443703651
10.27136851,0.988805294,-7.824550629,-1.443703651
10.27636918,1.575384736,-7.307403088,-1.960851192
10.28136915,1.702277422,-6.953061104,-2.418143749
10.28636911,1.793257117,-6.318597794,-2.913743496
10.29136908,1.881842494,-5.842151642,-2.916137695
10.29636908,1.994369984,-5.451896667,-2.93529129
10.30136948,1.987187386,-5.176563263,-3.062183857
10.30636951,1.752555609,-4.046200752,-2.97599268
10.31136954,1.723825216,-3.888183594,-2.997540474
10.31636958,1.606509328,-3.210624456,-3.34469986
10.32136998,1.565807939,-2.755726099,-3.687070608
10.32636998,1.079784989,-2.293645144,-4.223371983
10.33136994,0.8427590132,-2.171540976,-4.95869112
10.33637081,0.8978256583,-1.903390408,-6.316203594
10.34137167,1.022324085,-1.534683347,-7.474997044
10.34637257,0.9504981041,-1.395819545,-8.281843185
10.35137344,0.6655880809,-1.752555609,-8.686463356
10.35637344,0.5985504389,-2.202665567,-9.878775597
10.36137341,1.158793569,-2.561795712,-10.60421848
10.36637337,1.429338455,-2.588132143,-12.20833397
10.37137334,1.26413846,-2.370259762,-12.65844345
10.37637334,0.8355764151,-1.951274395,-12.0742588
10.38137337,0.5051765442,-1.553836942,-13.43177128
10.3863734,0.1101332754,-1.280897856,-15.51741982
10.39137344,-0.323217243,-0.5746083856,-17.74642181
10.39637344,-0.8882488012,0.653617084,-17.52615547
10.40137344,-1.403002143,2.542642117,-14.61929512
10.40637407,-1.731007814,4.802768707,-11.1261549
10.41137404,-1.728613615,5.906795025,-9.036016464
10.41637404,-1.855506301,7.52527523,-6.464643955
10.42137404,-2.037465572,8.59548378,-5.667374611
10.42637407,-2.075772762,9.763854027,-5.157409668
10.43137407,-1.663970232,10.73829365,-5.217264652
10.43637407,-1.07739079,11.22192287,-5.358522892
10.44137407,-0.4548983276,11.06390572,-5.473444462
10.44637407,0.2729389966,8.755894661,-4.86741209
10.45137407,0.5482721925,6.862081528,-4.242525578
10.45637404,0.6440402865,3.608062029,-2.992752075
10.46137404,0.7757213712,2.04704237,-2.102109194
10.46637404,0.1795651317,0.4955997467,-0.3687070608
10.47137407,0.1604115069,-0.14844051,0.14844051
10.47637407,0.5027823448,-1.453280449,0.7829039693
10.48137407,0.4836287498,-1.723825216,0.8164227605
10.48637403,0.4668693244,-2.11647439,0.9457096457
10.49137403,0.6320692301,-2.698265314,0.988805294
10.49637403,0.8762778044,-3.059789658,0.672770679
10.50137407,0.9337386489,-3.332728863,0.3256114423
10.50637407,1.00317049,-3.294421434,0.2130839527
10.51137407,1.043871999,-3.275267839,0.2059013397
10.51637407,1.192312479,-3.428496838,0.01197100803
10.52137407,1.247379065,-3.622427225,-0.107739076
10.52637407,1.577778935,-4.01747036,-0.3327940404
10.53137403,2.073378563,-4.371812344,-0.5458779931
10.536374,2.346317768,-4.604049683,-0.988805294
10.541374,2.549824715,-5.025728703,-1.56101954
10.54637403,3.098097086,-6.002563,-2.506729126
10.55137407,3.653551817,-6.622661114,-3.093308687
10.55637406,4.86741209,-7.712022781,-4.551377296
10.56137406,5.629067421,-8.882787704,-5.942708015
10.56637403,7.039252281,-12.38789845,-9.380781174
10.571374,7.884405613,-15.89809799,-12.4525423
10.57637396,8.961795807,-23.99768257,-18.3832798
10.58137396,7.360075474,-32.9211731,-24.29456329
10.586374,5.145438671,-46.07312012,-27.53421783
10.59137403,2.240972757,-56.76831818,-30.85497475
10.59637406,-2.801215887,-74.80443573,-38.52150726
10.60137406,-3.450044632,-77.97675323,-38.8686676
10.60637406,-4.906018734,-78.41968536,-36.02196121
10.61137403,-8.839692116,-75.96801758,-30.74005318
10.61637403,-13.7334404,-66.75722504,-21.32335854
10.62137403,-15.23250961,-60.70199203,-14.75366974
10.62637406,-15.48390102,-55.66698456,-10.18044472
10.63137406,-14.9116869,-50.11931992,-6.845322132
10.63637406,-13.89145756,-45.28063965,-5.023334503
10.64137403,-12.95293045,-41.04020691,-3.907337189
10.64637399,-11.58823586,-36.65882111,-3.107673883
10.65137396,-10.95616627,-34.228405,-2.41574955
10.65637396,-10.96095467,-30.42401886,-7.15656805
10.66137396,-10.92743587,-29.013834,-7.15656805
10.66637399,15.2061739,-22.06556129,74.12687683
10.67137402,10.14213753,-15.8597908,78.16110992
10.67637406,3.256114244,-11.53795719,78.41249847
10.68137406,2.161964178,-9.047987938,72.68527222
10.68637406,-3.787626982,-10.28578949,46.65730667
10.69137402,-7.477391243,-13.36712742,22.60186195
10.69637402,-8.322544098,-13.86512089,9.483732224
10.70137402,-8.380004883,-12.60337734,8.04960537
10.70637406,-8.497321129,-9.883563995,10.94180107
10.71137406,-8.494926453,-8.284236908,13.91061115
10.71637406,-7.407959461,-6.529287338,17.91162109
10.72137406,-5.609913826,-5.765536785,18.05766869
10.72637406,-3.746925592,-5.526116848,15.66107178
10.73137406,-2.382230759,-5.796661377,11.65048504
10.73637402,-1.45088625,-5.983409405,6.277895927
10.74137402,-1.276109457,-6.004957199,3.655946016
10.74637402,-0.9145850539,-5.468656063,0.9672574997
10.75137406,-0.6224924326,-4.975450516,0.0191536136
10.75637406,-0.04548983276,-4.05338335,-0.7829039693
10.76137406,0.3280056417,-3.509899616,-0.7948749661
10.76637402,0.7110779285,-2.722207308,-0.6560112834
10.77137402,0.9648633003,-2.226607561,-0.2968810201
10.77637402,1.271321058,-1.733402014,0.9648633003
10.78137406,1.695094824,-0.9935936928,4.180276394
10.78637409,1.273715258,-0.323217243,7.606678009
10.79137409,0.6655880809,-0.2729389966,6.811803341
10.79637409,-0.3399766386,-0.8595184088,2.794033289
10.80137409,-0.6105214357,-1.312022567,0.4764461517
10.80637409,-0.8499416113,-1.867477298,-1.37427175
10.81137409,-0.8307880163,-2.188300371,-1.865083098
10.81637405,-0.9121908545,-2.959233284,-2.343923569
10.82137405,-1.113303781,-3.830722809,-2.798821688
10.82637405,-1.532289028,-4.99699831,-3.313575268
10.83137409,-2.226607561,-6.11509037,-3.339911461
10.83637409,-3.450044632,-7.776666164,-2.087743998
10.84137409,-4.42209053,-9.380781174,-0.4357447028
10.84637405,-6.866869926,-13.10137081,4.57531929
10.85137402,-8.662521362,-16.04893303,9.842862129
10.85637399,-10.58985329,-23.48292923,20.01133728
10.86137398,-10.94898319,-32.3920517,24.66117477
10.86637402,-11.07587624,-42.51982498,24.35202408
10.87137405,-11.63133144,-52.61647415,19.19970131
10.87637408,-13.47726059,-60.59425354,12.02876854
10.88137408,-16.57086945,-67.20254517,4.778826714
10.88637408,-19.90120316,-73.88506317,-4.268861771
10.89137405,-24.06472015,-77.19624329,-10.46774864
10.89637405,-26.1168499,-74.48122406,-17.81106567
10.90137405,-24.56061935,-67.52336884,-19.58995628
10.90637408,-20.97859383,-51.42176437,-17.76557541
10.91137412,-16.28356361,-39.35229492,-13.27614784
10.91637412,-10.98489666,-29.64111519,-7.386411667
10.92137408,-7.814973831,-22.16851234,-3.538630009
10.92637405,-5.492598057,-16.72170258,-1.201889277
10.93137401,-3.722983599,-12.48845577,0.01675941236
10.93637398,-1.798045516,-8.712799072,0.6584054828
10.94137398,-1.201889277,-7.046434879,0.3663128614
10.94637401,-0.5817909837,-5.131073475,-0.2681505978
10.95137405,-0.4836287498,-4.321534157,-0.7493851185
10.95637408,-0.1580173075,-3.433285236,-1.362300754
10.96137408,0.05746084079,-2.8993783,-1.67115283
10.96637408,0.1699883193,-2.408566952,-1.841141105
10.97137405,0.5410895944,-2.123656988,-1.651999116
10.97637404,0.9481038451,-1.833958507,-1.802833915
10.98137404,1.125274777,-1.74776721,-2.166752577
10.98637408,1.096544385,-1.886630893,-3.040636063
10.99137408,1.091755986,-1.97042799,-3.280056238
10.99637408,1.139639974,-1.927332401,-3.363853455
11.00137408,1.170764685,-1.862688899,-3.323152065
11.00637408,0.895431459,-1.618480325,-3.433285236
11.01137408,0.5937620401,-1.56101954,-3.696647406
11.01637404,0.1316810995,-1.470039845,-3.950432777
11.02137404,-0.1125274822,-1.462857246,-4.335899353
11.02637404,-0.739808321,-1.551442742,-6.093542576
11.03137408,-1.388636947,-1.759738207,-7.656956196
11.03637411,-2.003946781,-2.219424963,-9.03841114
11.04137411,-1.82198751,-2.851494312,-9.852438927
11.04637408,-1.419761658,-3.859453201,-11.16925049
11.05137404,-1.098938584,-4.429273129,-12.20833397
11.05637338,-1.982398987,-5.159803867,-15.62276459
11.06137271,-3.191470861,-5.174169064,-18.01217842
11.06637184,-4.292803764,-4.774038315,-21.39518547
11.07137094,-5.490203857,-4.261679173,-24.5654068
11.07637094,-6.206069946,-3.541024208,-27.77842522
11.08137004,-6.615478516,-2.487575531,-28.26923752
11.08636937,-6.342539787,-0.09576806426,-24.61329079
11.09136847,-5.461473465,1.532289028,-20.63382912
11.09636754,-3.711012602,4.218583584,-13.21150398
11.10136687,-3.143586874,5.662586212,-9.957783699
11.10636597,-2.389413357,7.688080788,-6.615478516
11.11136511,-1.89620769,8.83729744,-5.952284813
11.11636511,-1.458068848,9.835680008,-5.913977623
11.12136511,-0.4141969085,12.27297688,-6.546046734
11.12636474,1.467645645,15.06491566,-7.106289864
11.13136471,2.346317768,14.48521996,-6.143820763
11.13636467,3.351882458,11.97130775,-4.211400986
11.14136467,3.608062029,10.30015469,-3.23456645
11.1463647,3.653551817,7.214028835,-2.04464817
11.15136474,2.971204281,4.599261284,-1.271321058
11.1563641,1.802833915,1.996764183,-0.4118026793
11.16136414,0.5339069963,0.4285621047,0.4596867263
11.16636414,-0.2585737705,-0.248996973,1.134851575
11.1713632,-0.5554547906,-0.6272808313,1.551442742
11.17636317,-0.538695395,-0.9121908545,2.185906172
11.18136317,-0.4070142806,-1.060631394,2.379836559
11.18636317,-0.06943184882,-1.711854219,2.214636564
11.1913632,-0.0191536136,-1.987187386,1.982398987
11.1963628,0.1388636976,-2.329558372,1.577778935
11.2013628,0.457292527,-2.741360903,1.30005157
11.20636343,0.9050082564,-3.124433279,1.084573388
11.21136407,1.192312479,-3.584120035,0.9648633003
11.21636493,1.532289028,-4.283226967,0.7781155705
11.22136583,1.790862918,-5.018546104,0.5195417404
11.22636587,2.427720547,-6.763918877,-0.3950432837
11.2313668,2.954444885,-7.850886822,-1.103726983
11.2363675,4.060565948,-9.548376083,-2.233790159
11.24133099,4.582501888,-10.39831734,-3.213018656
11.24633189,6.009745598,-11.48528481,-4.369418144
11.25133186,7.424718857,-12.52436829,-4.560954094
11.25633276,9.170091629,-13.88188076,-5.159803867
11.26133366,12.845191,-17.24842834,-6.747159481
11.26633369,16.11836433,-25.49675179,-5.214870453
11.27133336,17.82303619,-31.79589653,-5.425560474
11.27633369,19.75036812,-45.01248932,-9.040804863
11.28133369,19.13027,-54.1873703,-12.25142956
11.28633369,15.8693676,-67.88010406,-16.01541328
11.29133369,14.19073296,-73.6217041,-18.28272247
11.29633366,10.01763916,-76.38700867,-18.49341202
11.30133362,5.392041683,-75.19229889,-19.61868668
11.30633429,0.08140286058,-72.02446747,-21.48855972
11.31133429,-5.396830082,-67.4395752,-21.98176384
11.31633432,-11.90905857,-60.19202805,-17.49742508
11.32133522,-14.43733597,-55.73641586,-13.7238636
11.32633522,-16.72409821,-48.21593094,-6.850110531
11.33133519,-16.82704735,-43.80311584,-5.497386456
11.33633519,-15.65149498,-37.04668045,-3.574543238
11.34133519,-12.41184044,-29.72730637,-16.17821884
11.34633562,-7.889194012,-10.37198067,-29.24607086
11.35133562,-10.60900688,-27.50548744,-12.42620564
11.35633562,-12.51479149,-37.50876236,-3.830722809
11.36133562,-12.22748756,-40.59728241,0.7829039693
11.36633562,-10.68322754,-35.75620651,13.75259399
11.37133562,-0.3112462163,-6.802226067,67.72209167
11.37633559,3.150769472,2.97359848,78.09646606
11.38133559,-5.657797813,-1.460463047,78.38855743
11.38633559,-14.55943966,-7.968202591,51.85272217
11.39133522,-16.72649193,-10.00327396,33.87645721
11.39633522,-15.33306599,-8.102277756,15.74726295
11.40133588,-11.25544167,-8.470984459,-0.2274491638
11.40633585,-8.42788887,-10.41986465,-3.912125587
11.41133582,-7.386411667,-10.33367348,-3.143586874
11.41633582,-6.225223541,-9.026439667,-2.573766708
11.42133618,-5.578789234,-8.296208382,-2.422932148
11.42633622,-4.774038315,-7.127837658,-1.936909199
11.43133622,-4.355052948,-6.44549036,-1.735796213
11.43633622,-3.574543238,-5.238812447,-1.407790542
11.44133622,-2.918531895,-4.359841347,-1.074996591
11.44633622,-2.183511972,-3.414131641,-0.7445967197
11.45133622,-1.403002143,-2.442085743,-0.3758896589
11.45633618,-0.7733271718,-1.572990537,-0.1053448766
11.46133618,-0.457292527,-0.806845963,0.05267243832
11.46633618,0.06224924326,0.1580173075,1.833958507
11.47133622,0.4070142806,2.042253971,13.60175896
11.47633622,-0.1221042871,3.201047659,22.38877869
11.48133622,-0.2011129409,1.982398987,14.33677864
11.48633618,-0.4525041282,0.05506663769,2.954444885
11.49133615,-0.7086837292,-0.7661445141,-0.7613561153
11.49633611,-1.053448796,-1.158793569,-2.466027737
11.50133545,-1.417367458,-1.438915253,-3.026270866
11.50633548,-2.030282974,-1.656787634,-3.519476414
11.51133551,-2.521094322,-1.680729628,-3.751713991
11.51633554,-3.406949043,-2.030282974,-3.739742994
11.52133555,-4.122815132,-2.351106167,-3.667917013
11.52633554,-6.783072472,-4.876988888,-5.023334503
11.53133551,-7.791031837,-6.160580158,-4.479551315
11.53633548,-9.07671833,-7.228394032,-2.336740971
11.54133588,-10.8412447,-7.542034626,1.18752408
11.54633588,-12.39747524,-8.418312073,5.432743073
11.55133591,-14.06383991,-9.699210167,8.72237587
11.55633591,-14.93802261,-11.41106415,9.182063103
11.56133591,-15.14871311,-12.71351051,7.862857819
11.56633588,-15.31870079,-15.61558247,4.953902721
11.57133584,-15.72571564,-18.08400345,3.588908434
11.57633581,-17.02576637,-24.09584427,1.570596337
11.58133581,-18.20610809,-28.41288948,-0.4692635238
11.58633584,-18.7663517,-38.81599426,-3.478775024
11.59133587,-19.15181732,-49.44176102,-8.413523674
11.59633591,-17.48545265,-59.33011246,-9.684844971
11.60133591,-15.2109623,-64.36541748,-7.597101212
11.60633591,-11.68639755,-65.51224518,-5.770325184
11.61133587,-10.35282707,-65.91925812,-5.504569054
11.61633587,-9.234735489,-62.24864578,-4.671087742
11.62133587,-9.948206902,-55.31264496,-3.588908434
11.62633591,-9.565135002,-41.44482803,-1.594538331
11.63133591,-7.659350395,-32.43515015,0.586579442
11.63633591,-5.782296181,-25.3507061,3.040636063
11.64133591,-4.328716755,-20.13822937,5.296273232
11.64633591,-2.956839085,-16.2620163,6.924330711
11.65133657,-1.673547029,-13.4197998,7.501333237
11.65633654,-0.4548983276,-10.86518669,6.933907509
11.6613365,0.06464344263,-9.732728958,6.397606373
11.6663365,0.6344634295,-8.281843185,4.776432514
11.67133654,0.8762778044,-7.692869186,3.529053211
11.67633657,1.206677675,-7.012916088,1.886630893
11.68133657,1.367089152,-6.670545101,0.8810662031
11.68633657,1.532289028,-6.534075737,0.0718260482
11.69133654,1.575384736,-6.218040943,-0.6200982332
11.69633657,1.704671621,-5.636250019,-1.18752408
11.70133657,1.668758631,-4.913201332,-1.939303398
11.7063366,1.403002143,-3.708618402,-2.633621931
11.7113366,1.058237195,-3.177105665,-2.825158119
11.7163366,0.4860229492,-2.698265314,-2.71502471
11.7213366,0.6679822803,-2.640804529,-2.616862535
11.7263366,0.6224924326,-2.456450939,-2.853888512
11.7313366,0.3854664862,-2.319981337,-3.435679436
11.73633657,0.09097966552,-2.592920542,-4.637568474
11.74133657,-0.6607996821,-2.82276392,-6.060023785
11.74633657,-1.244984865,-3.450044632,-7.647379398
11.7513366,-1.429338455,-3.821146011,-9.07671833
11.7563366,-1.297657371,-4.350264549,-11.36318016
11.7613366,-0.7158663273,-4.814739704,-12.65604973
11.76633657,0.3208230138,-5.801449776,-15.03139687
11.77133653,0.5003881454,-6.615478516,-16.72649193
11.7763365,1.297657371,-7.735964775,-22.06795502
11.7813365,1.515529633,-7.779060364,-27.51985168
11.7863365,2.111685991,-7.106289864,-31.15903854
11.79133653,1.565807939,-6.069600582,-32.21009445
11.79633656,0.6177040339,-3.620033026,-28.71455956
11.8013366,0.5530605912,-1.395819545,-23.3727951
11.8063366,0.3447650373,2.846705914,-15.63712978
11.8113366,-0.1005564705,4.819528103,-12.31128407
11.81633656,-0.5267243981,7.257124424,-8.353669167
11.82133656,-0.7757213712,8.277054787,-6.692092896
11.82633656,-0.9433154464,9.452607155,-5.863699436
11.8313366,-0.6751648784,10.29297256,-5.360917091
11.8363366,0.06943184882,10.35761547,-5.166986465
11.8413366,0.9026140571,9.60104847,-4.968267918
11.84633656,1.946485996,6.742371082,-4.134786129
11.85133653,2.142810583,4.496310711,-3.38300705
11.8563365,1.841141105,1.211466074,-1.683123827
11.8613365,1.472434044,0.1292868853,-0.6584054828
11.86633653,0.9313444495,-1.065419793,1.132457376
11.87133656,0.758961916,-2.04464817,2.286462545
11.87633659,1.015141487,-2.604891539,1.920149803
11.88133659,1.192312479,-3.189076662,1.381454349
11.88633659,1.41018486,-3.588908434,1.276109457
11.89133656,1.711854219,-3.945644379,1.079784989
11.89633656,1.764526606,-4.19464159,0.8930372596
11.90133656,1.723825216,-4.254496574,0.691924274
11.90633659,1.331176162,-4.206612587,0.2657563984
11.91133663,1.175553083,-4.197035789,0.05267243832
11.91633663,1.137245774,-4.532223701,-0.3543418646
11.92133663,1.352723956,-5.095160484,-0.7757213712
11.92633663,1.666364431,-5.782296181,-1.283292055
11.93133663,2.061407566,-6.526893139,-1.798045516
11.93633746,2.552218914,-7.448660851,-2.497152328
11.94133742,2.7533319,-7.925107002,-2.952050686
11.94633743,3.435679436,-8.966584206,-4.110844135
11.95133742,4.113238335,-9.936236382,-5.006575108
11.95633746,5.396830082,-11.75822353,-6.244377136
11.96133746,6.311414719,-12.90983486,-7.053617477
11.96633746,8.135796547,-15.23011589,-8.387187958
11.97133742,9.703998566,-17.92598724,-9.170091629
11.97633742,11.00644493,-21.07915115,-8.990526199
11.98133742,12.39508152,-25.25493813,-8.33930397
