Time (s),Acceleration x (m/s^2),Acceleration y (m/s^2),Acceleration z (m/s^2)
6.001373621,0.42504625005830543,0.9761286009945427,-0.5350898766228172
6.006373621,0.30465886824646493,-0.4661442421113169,1.0527718653751839
6.011373621,0.14747725375040535,-1.9605245731228376,2.5950071926572207
6.016373587,-0.06527768986858791,-3.521227870543452,4.056991482482894
6.021373553,-0.34971085362846815,-5.158017910082761,5.40622284323045
6.026373519,-0.7182163024270248,-6.874654884672686,6.613177223850765
6.031374185,-1.1786182471878357,-8.667690235780585,7.6521193203203985
6.036374185,-1.7335362465317632,-10.525690216509231,8.501849138385955
6.041374218,-2.3800102983464764,-12.428945538962104,9.146360953290168
6.046374251,-3.1094084762274825,-14.349696127095372,9.575388665756003
6.051374284,-3.9076253229435025,-16.252869612696973,9.784809693987484
6.056373617,-4.755564044366582,-18.097301559732177,9.776879081549364
6.061372717,-5.629880474647517,-19.83737635761579,9.560267022668652
6.066371783,-6.503952707782881,-21.425002140545686,9.149877192572147
6.071370883,-7.349028120789898,-22.811812648397268,8.566430753699176
6.076370216,-8.135490058928882,-23.95147500611381,7.835811877909422
6.081369349,-8.834180324612333,-24.801975894941204,6.988184454935755
6.086368449,-9.417711170841349,-25.327759943558977,6.0569049259021055
6.091367815,-9.86170184670422,-25.501603233241273,5.077271084607522
6.096367381,-10.14587970317552,-25.30612085119772,4.08515952894065
6.101366714,-10.254994005643505,-24.734829176521185,3.1156139121147532
6.106366714,-10.179501281817982,-23.792709405766438,2.201451407094086
6.11136668,-9.91599352564687,-22.496246897784534,1.3719554967491574
6.11636668,-9.467354110621041,-20.872949407963088,0.6517194162638823
6.12136668,-8.84264006554135,-18.96037448582573,0.05969676542512613
6.126366313,-8.05670268428078,-16.804720746808467,-0.39149527640223264
6.131366313,-7.129570597562293,-14.459058203204561,-0.6959881460219522
6.136366313,-6.085629851581222,-11.981288472205602,-0.8547723440876298
6.141366279,-4.952643765435804,-9.431935924504966,-0.8755042211415972
6.146365612,-3.7606610752153014,-6.871875481001961,-0.7720219678024716
6.151364712,-2.5408639766010475,-4.360101908072324,-0.5635972323279954
6.156364745,-1.324408165092368,-1.9516394839352251,-0.27396051787062664
6.161364778,-0.14130499281511083,0.3043195774655551,0.06985203931490612
6.166364111,0.9806083313976732,2.3659737635116644,0.4387760413092712
6.171364111,2.0165706423058976,4.200110794954376,0.8030617513368239
6.176364111,2.9456385213259764,5.782907743065143,1.133622611185881
6.181364111,3.751244125373339,7.100314137246558,1.403330728823697
6.186363444,4.421554700327395,8.14801909510542,1.5882045572424182
6.19136341,4.949628738891284,8.931022167275719,1.6684400772711747
6.19636341,5.333372873446157,9.462844505326393,1.6292447913385426
6.20136341,5.57531205435396,9.764431479233288,1.461443330567846
6.20636411,5.68219300577744,9.862809479596784,1.1618340371134572
6.21136501,5.664447097000302,9.789567978608407,0.7332870543878115
6.21636591,5.535543419941078,9.579242782416992,0.18458578603467174
6.221366776,5.311265909033425,9.26767771790401,-0.4699753763558474
6.226367409,5.008949744325426,8.890439822951281,-1.2112138475882348
6.231368275,4.646712079527053,8.481357638395508,-2.0158698161654653
6.236369175,4.24271042855785,8.071243736161449,-2.857565491037378
6.241369841,3.814458971508078,7.686851576482652,-3.7078671626354063
6.246370307,3.378228796237006,7.350103682973311,-4.537401301604199
6.251371007,2.948552910509784,7.0776135558927455,-5.316975040737781
6.256371007,2.5378510062676916,6.880508371439768,-6.018652993192938
6.261371007,2.1561827082060203,6.764544039396067,-6.616746380483547
6.266370973,1.8111316675349787,6.730489332344649,-7.0886766740271305
6.271370973,1.5078166371503592,6.7747422682694,-7.415684051435152
6.276371373,1.2490198480715478,6.890130397315066,-7.58336044333075
6.281371406,1.0354178459273835,7.066837714060111,-7.581997169398278
6.286371439,0.865895657884664,7.293395084388833,-7.406747406596607
6.291371439,0.7379219192544592,7.557668699591384,-7.057613249711859
6.296372072,0.6479605193045783,7.847782347621258,-6.53927524297593
6.301372938,0.5918934946873231,8.152914243721208,-5.860788473063123
6.306372904,0.5654303097274456,8.46391762327668,-5.035173321184133
6.31137287,0.5644802564441681,8.773725908654631,-4.078930694506899
6.316373536,0.5854673749524657,9.077517466352084,-3.0115111071880944
6.321373569,0.6255708970377898,9.372631030768545,-1.8547646224238483
6.326373602,0.682878594293331,9.658239870682642,-0.6323947628265398
6.331373635,0.7564453930105841,9.93480965992305,0.6305655328377135
6.336374301,0.8462550043892308,10.203380666851666,1.9082435343580584
6.341374301,0.953087884566237,10.46472822043656,3.174375478836866
6.346374267,1.0783043268187629,10.71846551359639,4.402713716606069
6.351374267,1.223556615606507,10.96215896681318,5.567396572458305
6.356374267,1.3904486497505755,11.190528170229378,6.64328936297314
6.3613743,1.5801650009377746,11.39479970558192,7.60630789854006
6.3663743,1.7930937921307026,11.562277039937506,8.433737276719329
6.3713743,2.0284689027138953,11.676177537899223,9.104558737012566
6.3763743,2.2840567513247714,11.715773023702564,9.599795776220384
6.3813743,2.55591126529162,11.65685298693562,9.902887688366706
6.3863743,2.8382176798795244,11.472510362256338,10.000094356087578
6.391374266,3.1232416463237374,11.134229832671195,9.880930736957772
6.396374266,3.4013949430028325,10.613238885084504,9.538623402844802
6.401374266,3.6614231026226065,9.882063483768093,8.970575121846572
6.406374299,3.8907137539298686,8.916214285280217,8.178817289051986
6.411374332,4.075717727548891,7.695916769875098,7.170424501411888
6.416374332,4.202468316327191,6.20779034216713,5.957861206721783
6.421374298,4.25717785140006,4.446378008499529,4.559227564463453
6.426374264,4.226885299416166,2.4154301033333363,2.9983707893321587
6.431374264,4.100124233358286,0.12885289638133232,1.3048295606607319
6.436374264,3.8675775750244874,-2.388754323550497,-0.4864172870498046
6.441374297,3.5226841950534142,-5.10203230103286,-2.335420606524056
6.446374297,3.062162961229961,-7.965301464009348,-4.197963921120696
6.451374297,2.486422242919779,-10.923519061178824,-6.026503942943723
6.456374297,1.7998272209318467,-13.913736885722708,-7.7713411546904
6.461374297,1.0108035431416411,-16.86701412047969,-9.38199997801767
6.466374297,0.13176372447329712,-19.710712182034467,-10.808784571259011
6.471374263,-0.8211481181038769,-22.37107355353883,-12.004463140900118
6.476374263,-1.8284876004301835,-24.775966396237976,-12.926021667646316
6.481374263,-2.8681017537816667,-26.85766295724499,-13.536417981865782
6.486374296,-3.915855854276888,-28.55551373538431,-13.80625995342541
6.491374296,-4.9464621064632315,-29.818381673774315,-13.715327845507034
6.496374296,-5.934370803517151,-30.60671127381183,-13.253861097513475
6.501374262,-6.854680949438952,-30.894125799456727,-12.423534199762072
6.506374228,-7.684026369871945,-30.668470461149116,-11.238054902591633
6.511374194,-8.40139507353965,-29.93224901467881,-9.723330508622272
6.516374194,-8.988843876309296,-28.70243368569544,-7.917163952257498
6.521374227,-9.432076714788622,-27.00966171203726,-5.868460154078565
6.52637426,-9.720863165283717,-24.89686403677931,-3.6359440716942917
6.531374293,-9.849282858877286,-22.417400794979073,-1.2864142815476924
6.536374326,-9.81579110710984,-19.632802452409134,1.1074208721772316
6.541374326,-9.623110474155531,-16.610233517323618,3.4694543948639582
6.546374292,-9.277961625750601,-13.419807097472445,5.722946963014404
6.551374258,-8.790654020205407,-10.131883249173791,7.793437137102305
6.556374991,-8.174562516831278,-6.814482352743579,9.611669054814003
6.561374991,-7.445519618242098,-3.530936857717324,11.116401875026902
6.566375024,-6.62115492556318,-0.337890691735792,12.256963490187138
6.571375024,-5.720213716645124,2.716264484811202,12.995418397299838
6.576375024,-4.7618856010129536,5.592452484915924,13.308236626858815
6.58137499,-3.765172085649691,8.261440871879213,13.187376142425924
6.586374956,-2.7483186376647852,10.703830841493644,12.64072253296682
6.591374922,-1.7283325163690975,12.909535501643395,11.691863852597708
6.596374922,-0.7206024355541617,14.876800960771625,10.379212105006768
6.601374955,0.2613697246654369,16.61084810316189,8.754513912869012
6.606374988,1.206121081452624,18.122231164656785,6.880819972975718
6.611375021,2.1042658208387177,19.425021528204933,4.830005167243187
6.616375021,2.9484269617284538,20.534931176030184,2.6799482200590754
6.621374321,3.733074716084804,21.467489926547017,0.5114913471123024
6.626374287,4.454288611911654,22.2363842125171,-1.5946935885830837
6.631374287,5.109463783510544,22.852053257410898,-3.5612051573928736
6.636374287,5.696983930463485,23.320621849147297,-5.316855709685981
6.64137432,6.2158843366920475,23.643228454702115,-6.799343894204236
6.64637432,6.665528006647842,23.815784268428025,-7.9575551770813
6.65137432,7.045316450000824,23.829174136253542,-8.753405520804721
6.65637432,7.3544540134168415,23.669885382197624,-9.16316240445053
6.66137432,7.591781054655785,23.32102660608948,-9.178198312738266
6.66637432,7.755686865055725,22.763676684911367,-8.805153905274773
6.671374286,7.8441082939108755,21.978485553211325,-8.065510525823914
6.676374252,7.8546147577488865,20.947433773486463,-6.994593788887947
6.681374252,7.7845749853640305,19.65564816310468,-5.6400510016048075
6.686374252,7.631395716679886,18.09316632650451,-4.059864513427501
6.691374285,7.39281790173218,16.256544108098485,-2.319980164937058
6.696374285,7.06725198901602,14.150206729993993,-0.4916443242410385
6.701374285,6.654130882087646,11.787456446355222,1.3514458871353205
6.706373518,6.154257274240031,9.191066415955586,3.136067046395809
6.711373518,5.570121486905211,6.39341140559748,4.79235280082377
6.716373518,4.906166721780019,3.4361099021374946,6.256520941192977
6.721373551,4.1689808083054976,0.3691780424389412,7.473333861109383
6.726373551,3.367397033736262,-2.7502778821176057,8.398191438177465
6.731373551,2.512491336665344,-5.859778196498892,8.99876915431385
6.736373551,1.6174687569897472,-8.89352081918981,9.256132349975118
6.741373551,0.6974381685554913,-11.784672385096318,9.165279582788264
6.746373551,-0.23091948459014164,-14.467791615872464,8.735093498338175
6.751372617,-1.1497783819985954,-16.881269220443073,7.987705242781506
6.756372617,-2.040674182024547,-18.969667254763486,6.95730653727054
6.761372617,-2.885068909731326,-20.685846009584125,5.688470119005088
6.76637265,-3.6649503960741554,-21.992777751266047,4.234062479125309
6.77137335,-4.3634400989408295,-22.864963245880745,2.6528512219104448
6.77637335,-4.965382241510254,-23.289387828850455,1.0069219488506855
6.781373316,-5.457887663379567,-23.265977447985513,-0.6409741591186573
6.786373282,-5.830807570831566,-22.80754007960484,-2.2300209901434807
6.791373282,-6.077115389122672,-21.939202694074954,-3.703771494283979
6.796373315,-6.193178997055199,-20.69737718534048,-5.012311821869584
6.801373348,-6.178910559866978,-19.128309270546673,-6.114068769977263
6.806373348,-6.0377867401379515,-17.286281462914513,-6.977193696230773
6.811373348,-5.776737997529451,-15.231554228070864,-7.580478497725151
6.816373348,-5.405911691164778,-13.028137985465849,-7.913782851377894
6.821373348,-4.938319446294185,-10.741492559434459,-7.97797537574765
6.826373348,-4.389384404133313,-8.436250074232639,-7.784413481544233
6.831373314,-3.7764082375593935,-6.1740523863512555,-7.354006362548078
6.836373314,-3.1179809566879584,-4.011585410660421,-6.71592199450036
6.841373314,-2.4333584144392573,-1.9988807391679144,-5.906011567072474
6.846373347,-1.7418330153229762,-0.17794050187095237,-4.965033146764973
6.851373347,-1.0621224737685622,1.4182747244769296,-3.936760477302026
6.856373347,-0.4117996692326427,2.7664721718346486,-2.8660628078432517
6.861373313,0.19321613647967653,3.8532616039811503,-1.7970378202601696
6.866373279,0.7390900199137355,4.6750092298477295,-0.7712725719215472
6.871373245,1.2144114789526719,5.237336614867537,0.1737025471907457
6.876373245,1.6104357454012233,5.554303589239201,1.005713884331941
6.881373278,1.9212227167762952,5.647325003447414,1.6989591526454078
6.886373311,2.1436742724143545,5.543879372574046,2.2347114193717097
6.891373344,2.2774747681530396,5.276072792947055,2.6017016573052745
6.896373344,2.324943022954338,4.879123949910379,2.7961830063158737
6.901374244,2.29080699755632,4.389835628446355,2.82169284799294
6.90637421,2.1819145415062913,3.845115058760991,2.6885403121988456
6.911374176,2.0068950179954896,3.280599931617736,2.4130565276358062
6.916374176,1.7757873155893402,2.729439325411725,2.0166524866257607
6.921374209,1.4996497663630626,2.2212694755016407,1.524734578684022
6.926374242,1.1901668784022368,1.7814137082205084,0.9655305097471832
6.931374242,0.8592666387491353,1.4303244162113031,0.36887842744354543
6.936374242,0.5187605425101665,1.1832731549502107,-0.23497028812811502
6.941374208,0.1800165544759204,1.050283295364465,-0.8164887003139647
6.946373774,-0.14632698559192278,1.036288677295615,-1.3479130490024782
6.95137374,-0.450600839768272,1.1414918549999986,-1.8041509908846058
6.95637374,-0.7242944287231424,1.3618872446581838,-2.1635365331023806
6.961373773,-0.9601944636138432,1.6899081413049704,-2.408417913459608
6.966373806,-1.152473763349435,2.1151524492549454,-2.5255735315443717
6.971373839,-1.296733205371346,2.6251402510440696,-2.506459141448079
6.976373839,-1.39000124440225,3.206057106449931,-2.347296403767162
6.981373839,-1.4306965193257508,3.843440195274341,-2.049018197863983
6.986373805,-1.4185597351139199,4.522769950556309,-1.6170896077862502
6.991373805,-1.3545612702294751,5.2299374145150095,-1.0612251838760969
6.996373805,-1.2407908669257692,5.951566820096936,-0.3950230769521606
7.001373838,-1.0803353804736102,6.675183388718579,0.36446479081441663
7.006373838,-0.8771499708897499,7.389227488639059,1.1972098479005864
7.011373838,-0.6359273916176189,8.082927502987319,2.0807177500486835
7.016373838,-0.3619692243399357,8.746054348355159,2.9905628176975934
7.021373838,-0.06106206835697303,9.368589873811162,3.9009390172495984
7.026373838,0.2606391594040928,9.940348678669826,4.785223177988815
7.031373804,0.5967195043583434,10.450597613472649,5.616548162700125
7.03637377,0.9406033442941057,10.887718922427407,6.368384911337601
7.04137377,1.2856451202238208,11.238961414088088,7.01513257038429
7.046373803,1.6252123592433496,11.490319224224885,7.532715283062365
7.051373169,1.952762435223864,11.626569911694908,7.899182691895685
7.056373169,2.261914841677535,11.631493259155816,8.095308906712129
7.061372502,2.5465208674411914,11.488279851615628,8.105181786800268
7.066371568,2.8007324624433787,11.180125011534336,7.916771091156316
7.071370668,3.0190717678403263,10.690989790174742,7.522460620845713
7.076369734,3.196502286403749,10.00649729703508,6.919526202855079
7.081368834,3.3285020210599394,9.114920533343712,6.11053856324971
7.0863682,3.4111381587346576,8.008207876605278,5.103668136793353
7.091367366,3.441142080360288,6.682985148195732,3.9128679697336737
7.096366899,3.4159827011807002,5.141469364718012,2.5579113508779088
7.101365999,3.333935457215277,3.3922292429534013,1.0642628362865003
7.106365332,3.1941437227165723,1.4507315203579578,-0.5372349919399283
7.111365298,2.996669135615056,-0.6603798278260442,-2.210871376213488
7.116364631,2.7425272825907014,-2.911312575374024,-3.916779336456746
7.121364631,2.4337054983983575,-5.265489378839892,-5.611847045165403
7.126364664,2.0731601875678543,-7.680253190286317,-7.250816757803252
7.131364664,1.6647920658005884,-10.107903516451598,-8.787549632946504
7.136364664,1.2133989784525427,-12.497031870357162,-10.176424845827812
7.14136463,0.7246073670200747,-14.794105143897559,-11.373831884067046
7.14636393,0.2047848677338167,-16.945227990971265,-12.339706407660708
7.151363896,-0.33906222576214895,-18.898001063347753,-13.039053148139994
7.156363896,-0.899401977301359,-20.6033824204616,-13.443394533911972
7.161363896,-1.468295164704138,-22.01745572185736,-13.532081448878811
7.166363929,-2.037513883741271,-23.103011537861605,-13.293403017294997
7.171364595,-2.598655862430863,-23.830857320010423,-12.725435726465925
7.176364628,-3.1432509518078793,-24.18078668997498,-11.836578633616844
7.181364628,-3.662857602591373,-24.142158653091826,-10.645730806684956
7.186364628,-4.149148699520415,-23.714060673871796,-9.182079298877909
7.191364594,-4.5939877777455935,-22.905054605400895,-7.4844804646514405
7.196364594,-4.989498247606286,-21.732529492632747,-5.600433782775785
7.20136526,-5.328129649493921,-20.221708528809465,-3.5846649984256747
7.206365293,-5.602725989555044,-18.40437729119659,-1.497353775162787
7.211365959,-5.806601724546315,-16.317415412164014,0.5979403974126498
7.216366859,-5.933630845741089,-14.001223094067463,2.636582246787277
7.221367725,-5.97835365142517,-11.498136992161285,4.555306304052462
7.226368625,-5.936104126745202,-8.850927168744542,6.294701551602171
7.231369525,-5.803158395126079,-6.101458616658238,7.801622270495363
7.236370158,-5.576901672531523,-3.289587945686064,9.031406845820403
7.241371024,-5.256007977560244,-0.45234888113219973,9.949787528273696
7.246371924,-4.840624094005426,2.376540123115522,10.534383639139891
7.251372857,-4.3325474017115555,5.166835743403755,10.775689189535512
7.256373523,-3.7353863208623497,7.89161076401483,10.6774924298782
7.261373523,-3.0546920984909205,10.526813213454679,10.256696849077908
7.266374156,-2.298051252497881,13.050601494393327,9.542547167736535
7.271374156,-1.4751289854413348,15.442529919164258,8.575296709611665
7.276374156,-0.5976551895621779,17.682670289322775,7.404381853171072
7.281374189,0.3206537486220285,19.7507603840942,6.0861936173374085
7.286374222,1.2642422780556026,21.625469212472645,4.681554997285803
7.291374222,2.2159349554167784,23.2838617643456,3.253024997165113
7.296374888,3.157228086677477,24.701133227730434,1.862156258031479
7.301374888,4.06865155486244,25.85066498426769,0.5668328700732745
7.306374888,4.93019585883358,26.704433174356698,-0.581191246426174
7.311374888,5.7217964819848195,27.23377646434652,-1.5384445317464608
7.316374854,6.423864782364255,27.410504228537224,-2.271487790313804
7.32137422,7.017851762973576,27.208301143834948,-2.7581890475913786
7.32637422,7.486828480199071,26.60436067073348,-2.9884728080366454
7.331374253,7.816064631246318,25.58115949522666,-2.9645173961109577
7.336374253,7.993585177737759,24.128269037629945,-2.7003987019490943
7.341374253,8.010683836824384,22.2440896926801,-2.2212027375577654
7.346374219,7.862371987690486,19.93738936821853,-1.5616520391590039
7.351374219,7.547742049868612,17.228530629858664,-0.7643114126724146
7.356374219,7.0702257243385,14.15028048495118,0.12254377565670538
7.361374252,6.437729681316187,10.748113351186456,1.047299142703681
7.366374252,5.6626343588670744,7.079940504428956,1.9575044025572297
7.371374252,4.761645514832359,3.215227391104404,2.802393353702607
7.376374252,3.7554930236558244,-0.7665076099220844,3.5353041778057497
7.381374285,2.6684770437904524,-4.777784627710391,4.115886481894965
7.386374285,1.5278679408872837,-8.725780076303382,4.511989550432101
7.391374251,0.3631729946444262,-12.515372645961692,4.7011393698229895
7.396374251,-0.7947103938911128,-16.05248860245956,4.671529980976596
7.401374251,-1.9144289879449934,-19.247592625884177,4.422477317615326
7.406374284,-2.965164110510567,-22.019153964247128,3.9643104464050642
7.411374317,-3.9176427508657237,-24.29691155343478,3.317705106059697
7.416374317,-4.7451315682018045,-26.024766795498095,2.51249589646541
7.421374283,-5.424375196055154,-27.16314866092447,1.586033890558109
7.426374249,-5.936441049124736,-27.690721714440063,0.5811830359160669
7.431374249,-6.267435183689438,-27.605341957445013,-0.45593103054140083
7.436374249,-6.4090576690902346,-26.92420577788174,-1.4782939604385814
7.441374282,-6.358971361703204,-25.683180982260975,-2.4403682909868976
7.446374282,-6.120964791028855,-23.935352707316866,-3.300327554559575
