Time (s),X (m/s^2),Y (m/s^2),Z (m/s^2)
9.005633792,-0.6384215074581039,3.5354712287651537,0.17998302662586071
9.015558167,-0.7652727748305249,4.42979575637554,0.18518039791985147
9.025483167,-0.8875549922461136,5.310420152979143,0.18968536074843623
9.035407167,-1.0046577997570516,6.17383691674403,0.19338054105639219
9.045331167,-1.1160038160188575,7.01662193537099,0.19616104571091517
9.055256167,-1.2210541966387896,7.8354587920876515,0.19793666252443515
9.065180167,-1.3193138221032823,8.627162208289679,0.19863381725021345
9.075105167,-1.4103360386309234,9.388700374117482,0.1981972421575779
9.085029167,-1.493726887540588,10.117215946981881,0.19659131693789345
9.094954167,-1.5691487717625945,10.810045528541858,0.19380104973398124
9.104878167,-1.6363235213311884,11.464737461495439,0.18983267393373396
9.114803167,-1.6950348325380884,12.079067817567703,0.18471384482287312
9.124727167,-1.7451300673794177,12.651054476241024,0.1784934291914316
9.134651167,-1.7865214106254024,13.178969219322669,0.1712408906048423
9.144576167,-1.8191863911399373,13.66134778883631,0.16304528333946833
9.154500167,-1.8431677819188765,14.09699787444268,0.15401387865897245
9.164425167,-1.858572899553422,14.48500501128205,0.144270457212442
9.174349167,-1.8655723282615206,14.824736380100953,0.13395330939080305
9.184274167,-1.8643980962980404,15.11584251013625,0.12321299037397013
9.194198167,-1.855341333887145,15.358256893506406,0.11220987844914358
9.204123167,-1.8387494424459694,15.552193529525391,0.10111158505652994
9.214047167,-1.815022805253457,15.69814242907575,0.09009026382391552
9.223972167,-1.7846110700892415,15.796863122550075,0.0793198636961426
9.233896167,-1.748009034928506,15.849376228931247,0.06897336795615128
9.243820167,-1.705752168848377,15.856953157374754,0.059220056712324116
9.253745167,-1.6584118021702905,15.82110402563308,0.05022282605538932
9.263669167,-1.6065900225355807,15.74356389187209,0.042135593361974956
9.273594167,-1.5509143167488972,15.626277408425493,0.03510081552229796
9.283518167,-1.4920320014095068,15.471382018466942,0.02924714508924474
9.293443167,-1.4306044884003803,15.281189829724847,0.02468724805288908
9.303367167,-1.367301434243058,15.058168312922126,0.021515805569135255
9.313292167,-1.3027948250954025,14.804919985853926,0.019807719992917798
9.323216167,-1.2377530515048236,14.524161255988437,0.01961654274242169
9.333141167,-1.1728350286846831,14.218700604283713,0.02097313806912641
9.343065167,-1.1086844191277054,13.891416299892525,0.023884593357431014
9.352989167,-1.045924015184967,13.545233839322824,0.02833338384769669
9.362914167,-0.9851503401794367,13.183103304611935,0.03427679809967718
9.372838167,-0.9269285277253337,12.807976833626373,0.041646630028081194
9.382763167,-0.8717875398245608,12.422786392247364,0.05034914342350864
9.392687167,-0.8202157843186223,12.03042203337974,0.060265314735074696
9.402612167,-0.7726571905927303,11.633710821751716,0.07125135883223145
9.412536167,-0.7295077985264408,11.235396596571388,0.08313954024439217
9.422461167,-0.6911129095413675,10.838120736323976,0.09573926938598673
9.432385167,-0.6577648405689972,10.444404081222913,0.10883848026976531
9.442310167,-0.6297013122576215,10.056630158952535,0.12220528383125612
9.452234167,-0.6071044920416894,9.677029848359172,0.13558988944000513
9.462158167,-0.5901007010262951,9.307667603676467,0.1487267862646927
9.472083167,-0.5787607812638937,8.95042934855648,0.16133717546708032
9.482007167,-0.5731011073075291,8.607012134285242,0.17313164321119395
9.491932167,-0.5730852134305889,8.278915639794622,0.1838130627126751
9.501856167,-0.578625996233535,7.9674355724845425,0.19307971070705718
9.511781167,-0.5895884421431864,7.6736590089527645,0.20062857970214593
9.521705167,-0.6057928209509509,7.398461694250395,0.20615886232538486
9.531630167,-0.6270182800342403,7.142507297821744,0.209375578201361
9.541554167,-0.6530067690052173,6.906248604162147,0.20999330724302737
9.551479167,-0.6834672210982448,6.689930596843214,0.20773998617024678
9.561403167,-0.7180799158315772,6.493595376588273,0.20236071813181566
9.571327167,-0.7565009476719458,6.317088838089133,0.19362153991071807
9.581252167,-0.7983667276578038,6.1600690162249485,0.1813130888782673
9.591176167,-0.8432984488679576,6.022015999727081,0.1652541132683721
9.601101167,-0.8909064517161502,5.902243298447754,0.14529477382526604
9.611025167,-0.9407944308826661,5.799910538744745,0.12131969095583649
9.620950167,-0.9925634321264784,5.7140373498610515,0.09325069748658762
9.630874167,-1.0458155942941172,5.643518292506096,0.061049261551699444
9.640799167,-1.100157599501481,5.587138669249728,0.02471854636182922
9.650723167,-1.1552038024378943,5.543591045232007,-0.015694925927471744
9.660648167,-1.2105790176430788,5.511492297813804,-0.06010003899130554
9.670572167,-1.2659209511657232,5.489401005966194,-0.10836030748083335
9.680496167,-1.3208822701794478,5.4758349849340835,-0.16029359151233408
9.690421167,-1.3751323109627518,5.469288769090137,-0.2156723250838913
9.700345167,-1.4283584320610363,5.46825084580324,-0.27422427757296847
9.710270167,-1.480267025107066,5.471220445576525,-0.3356338615803253
9.720194167,-1.5305842002406058,5.476723698835463,-0.39954399431231113
9.730119167,-1.5790561660713986,5.483328977768397,-0.46555851337279774
9.740043167,-1.6254493257203262,5.4896612525905795,-0.5332451409125352
9.749968167,-1.669550110914206,5.494415305299757,-0.6021389820253635
9.759892167,-1.7111645757492084,5.4963676599319475,-0.6717465338728451
9.769817167,-1.7501177710180964,5.494387105965693,-0.7415501719352948
9.779741167,-1.7862529194302432,5.487443710563809,-0.8110130703450821
9.789666167,-1.819430412077548,5.474616235837575,-0.8795845053937941
9.799590167,-1.8495266473885652,5.455097899462602,-0.9467054849940153
9.809514167,-1.8764327356799755,5.428200440805146,-1.0118146415591187
9.819439167,-1.900053095127273,5.3933564799596345,-1.0743543209519062
9.829363167,-1.9203039681144882,5.350120183191833,-1.133776795529711
9.839288167,-1.9371118899833162,5.298166274544378,-1.1895505246545377
9.849212167,-1.9504121448660758,5.237287459181124,-1.2411663813244935
9.859137167,-1.9601472454513382,5.167390348938814,-1.2881437591075824
9.869061167,-1.9662654751842572,5.088490004096339,-1.3300364697445572
9.878986167,-1.9687195325384255,5.000703227169232,-1.3664383389283175
9.888910167,-1.9674653175575105,4.904240764220385,-1.396988405985274
9.898835167,-1.9624609006849172,4.799398586342812,-1.421375632602754
9.908759167,-1.9536657126719776,4.686548438077327,-1.4393430266747311
9.918683167,-1.9410399917020862,4.566127849822412,-1.4506910903683647
9.928608167,-1.9245445194406365,4.438629816700941,-1.455280507570065
9.938532167,-1.9041406711871787,4.304592345294682,-1.4530339962122931
9.948457167,-1.8797907962118299,4.164588060199459,-1.4439372669772141
9.958381167,-1.8514589322514923,4.019214043364274,-1.428039052084626
9.968306167,-1.8191118433697375,3.869082052279369,-1.4054501946492473
9.978230167,-1.7827203548313895,3.7148092332182214,-1.3763418163719436
9.988155167,-1.7422609450872528,3.557009418954396,-1.3409426049147957
9.998079167,-1.6977175453921483,3.3962850805442684,-1.2995352806450093
10.00800417,-1.6490834923267796,3.2332199902437515,-1.2524523168408923
10.01793104,-1.5963635767477131,3.068372645061171,-1.2000710001041068
10.02785604,-1.539576133082292,2.9022704942100463,-1.1428079297300722
10.03778004,-1.4787551136857766,2.7354050052691306,-1.0811130655604178
10.04770504,-1.4139520927482427,2.5682275911842734,-1.0154634416939883
10.05762904,-1.3452381430225724,2.401146403982448,-0.9463566670515059
10.06755304,-1.2727055282503057,2.2345239842767253,-0.8743043331677235
10.07747804,-1.1964691567933785,2.0686757421610573,-0.7998254457021475
10.08740204,-1.1166677485523415,1.9038692372699357,-0.723439990291176
10.09732704,-1.0334646769906624,1.7403242232382101,-0.6456627364929001
10.10725104,-0.9470484593780433,1.5782134222159874,-0.566997375719846
10.11717604,-0.8576328798355355,1.41766399598403,-0.4879310793792507
10.12710004,-0.7654567407544451,1.2587596800868073,-0.40892955148817745
10.13702504,-0.6707832484636159,1.101543545793114,-0.330432636522575
10.14694904,-0.573899048384865,0.9460213516475973,-0.2528505294422095
10.15687404,-0.4751129329689405,0.7921654420065688,-0.17656062140079168
10.16679804,-0.3747542521890369,0.6399191443792499,-0.10190500148566951
10.17672304,-0.2731710612084246,0.4892016107669401,-0.029188621557703073
10.18664704,-0.1707280429489304,0.3399130405139132,0.04132188217388228
10.19657104,-0.06780424450214523,0.1919402132680157,0.1093987303917868
10.20649604,0.0352093344159408,0.045162250593591954,0.17485293650256895
10.21642004,0.1379122652116668,-0.10054348538181755,0.23753367931543634
10.22634504,0.23989729423478082,-0.24529545629177968,0.2973271628148718
10.23626904,0.34075299881941,-0.3892020797416517,0.3541550181927569
10.24619404,0.44006647222488826,-0.5323560352343911,0.4079723050107099
10.25611804,0.5374260186597962,-0.6748288472092394,0.4587651675263697
10.26604304,0.6324238436754579,-0.8166658438356104,0.5065482001133018
10.27596704,0.7246587284457925,-0.9578815838650964,0.5513615733646661
10.28589204,0.8137386784278242,-1.0984558363359385,0.5932679701795502
10.29581604,0.8992835375519111,-1.2383301895153087,0.6323493787784563
10.30574104,0.9809275586621732,-1.3774053563055808,0.6687037872308785
10.31566504,1.0583219197793143,-1.5155392333899578,0.702441822024237
10.32558904,1.1311371742445187,-1.6525457604056815,0.7336833717943481
10.33551404,1.1990656212169417,-1.788194613083093,0.7625542366140644
10.34543804,1.261823581504407,-1.9222117504172052,0.7891828428072803
10.35536304,1.319153562331687,-2.0542808207762495,0.8136970624294002
10.36528704,1.3708262933762019,-2.18404541602639,0.8362211747075572
10.37521204,1.4166426152469866,-2.311112147108031,0.8568730036838539
10.38513604,1.4564352005350694,-2.4350544998806294,0.8757612624247799
10.39506104,1.490070086475731,-2.5554174170818897,0.8929831301742145
10.40498504,1.517447996945,-2.6717225411359373,0.9086220855380854
10.41491004,1.538505429983557,-2.783474043081896,0.9227460168070052
10.42483404,1.5532154856952027,-2.890164954645659,0.9354056298947775
10.43475804,1.5615884088514576,-2.991283913038339,0.946633174284687
10.44468304,1.5636718214039151,-3.0863222212333308,0.9564415064239924
10.45460704,1.5595506225255595,-3.1747811203875793,0.9648235070156354
10.46453204,1.5493465375405724,-3.2561791662496646,0.9717518634140867
10.47445604,1.533217301797333,-3.3300595984882575,0.9771792216047915
10.48438104,1.511355470933918,-3.3959975911744507,0.9810387052068149
10.49430504,1.4839868549373236,-3.4536072738422017,0.9832447926026078
10.50423004,1.4513685797886569,-3.5025484150205766,0.9836945382878773
10.51415404,1.413786787228106,-3.542532663576246,0.9822691210924991
10.52407904,1.3715539902893512,-3.573329247897735,0.9788357000117314
10.53400304,1.3250061098779315,-3.5947700394682887,0.9732495576960756
10.54392804,1.2744992259087724,-3.6067538960983354,0.9653565115686367
10.55385204,1.220406085275066,-3.609250210934503,0.9549955723077174
10.56377704,1.1631124177634296,-3.6023016058729156,0.9420018283963122
10.57370104,1.1030131191504802,-3.5860257216806333,0.92620953312229
10.58362504,1.0405083670161333,-3.5606160715389223,0.9074553664513375
10.59355004,0.975999738216402,-3.5263419392740833,0.8855818385177323
10.60347404,0.9098863969011836,-3.4835473174420457,0.8604407946070157
10.61339904,0.8425614186901231,-3.432648893099088,0.831896974496885
10.62332304,0.7744083110631501,-3.374133100470823,0.7998315730254218
10.63324804,0.7057977832909442,-3.3085522701382866,0.7641457446420176
10.64317204,0.6370848121664141,-3.2365199141758594,0.7247639930137203
10.65309704,0.5686060428192545,-3.1587051962416024,0.6816373877389957
10.66302104,0.5006775570430934,-3.075826645181697,0.6347465536257173
10.67294604,0.43359303463719,-2.9886451803418623,0.5841043829813818
10.68287004,0.3676223259712967,-2.8979565264071585,0.5297584266851612
10.69279504,0.3030104460637565,-2.8045831051055177,0.4717929243440904
10.70271904,0.23997699179517762,-2.7093655003981407,0.4103304371771528
10.71264404,0.17871597458062888,-2.613153602675532,0.34553304985087685
10.72256804,0.1193960513090925,-2.516797545733539,0.2776031100909873
10.73249204,0.06216112732913336,-2.4211385575905937,0.20678347804959848
10.74241704,0.0071312975890829725,-2.3269998520353985,0.13335726122473154
10.75234104,-0.04559591348881263,-2.2351776914634445,0.05764701515486031
10.76226604,-0.09594405585612584,-2.1464327523746194,-0.01998660477780439
10.77219004,-0.14385604458130424,-2.0614819225494325,-0.09914674904688356
10.78211504,-0.1892922795388287,-1.9809906536833723,-0.17940283850382777
10.79203904,-0.23222863368176058,-1.905565985878179,-0.2602935804112292
10.80196404,-0.27265434639185165,-1.8357503515635694,-0.34133051901315614
10.81188804,-0.3105698550364016,-1.7720162562732493,-0.4220020936952643
10.82181304,-0.3459845946383046,-1.7147619217541743,-0.5017781682857051
10.83173704,-0.378914792784169,-1.6643079626870059,-0.5801149864148665
10.84166204,-0.40938128493083753,-1.6208951519124264,-0.6564605000843408
10.85158604,-0.4374073744611766,-1.5846833109825258,-0.7302600116309733
10.86151104,-0.46301676215918336,-1.5557513435547237,-0.8009620631367427
10.87143504,-0.4862315706991827,-1.5340984089706498,-0.8680245019646606
10.88135904,-0.5070704905541286,-1.5196462128377546,-0.9309206462387851
10.89128404,-0.52554707398476,-1.5122423713118573,-0.9891454694945995
10.90120804,-0.5416682034932878,-1.5116647866815194,-1.0422217194365466
10.91113304,-0.5554327605637396,-1.5176269539612628,-1.0897058820059056
10.92105704,-0.5668305198655144,-1.529784101390169,-1.1311938989836265
10.93098204,-0.5758412933984746,-1.5477400519192097,-1.166326545145401
10.94090604,-0.5824343481667682,-1.5710546781030024,-1.1947943695407661
10.95083104,-0.5865681196154748,-1.5992518096950428,-1.2163421049824505
10.96075504,-0.5881902409259911,-1.6318274423299761,-1.2307724508242315
10.97068004,-0.587237905062086,-1.6682580879474629,-1.2379491374430054
10.98060404,-0.5836385720397191,-1.708009104565666,-1.2377991878077181
10.99052904,-0.5773110282038068,-1.7505428466254884,-1.2303143037960607
11.00045304,-0.5681667972004488,-1.7953264891574698,-1.2155513239919287
11.01037517,-0.5561118936942631,-1.8418393994921711,-1.1936317254169415
11.02029917,-0.541048901041451,-1.889579956071167,-1.1647401710786558
11.03022417,-0.5228793441648637,-1.938071739601479,-1.1291221335651
11.04014817,-0.5015063200094028,-1.986869042327561,-1.0870806483772362
11.05007217,-0.4768373407425705,-2.035561654867431,-1.0389722683937825
11.05999717,-0.44878733906227036,-2.0837788985977483,-0.9852023041533419
11.06992117,-0.4172817799305125,-2.1311928781959177,-0.9262194451406887
11.07984617,-0.38225981803934644,-2.1775209365865265,-0.8625098657046589
11.08977017,-0.3436774348433691,-2.2225273049854284,-0.7945909254076616
11.09969517,-0.3015104833570375,-2.266023954171713,-0.7230045770670542
11.10961917,-0.2557575645643822,-2.3078706680186127,-0.6483105967086026
11.11954417,-0.20644265834456232,-2.3479743741882575,-0.5710797490268535
11.12946817,-0.1536174358830388,-2.386287777619244,-0.4918870002678399
11.13939317,-0.09736318974231277,-2.4228073491900894,-0.41130488716904484
11.14931717,-0.03779233070733861,-2.4575707251875265,-0.3298971448437653
11.15924217,0.024950584962865518,-2.490653574014598,-0.2482126881467338
11.16916617,0.0906883200535938,-2.522165985945425,-0.16678003075883258
11.17909117,0.15921092199561235,-2.5522484403771952,-0.0861022148451565
11.18901517,0.23027618749885417,-2.5810674034839773,-0.0066523123075326275
11.19893917,0.30361061410940704,-2.608810607942267,0.0711304533827517
11.20886417,0.3789108176388954,-2.635682065841153,0.1468439281125412
11.21878817,0.4558453865229872,-2.6618968661212183,0.22012556698505836
11.22871317,0.5340571373541596,-2.6876758089245705,0.29065428273671906
11.23863717,0.6131657302279172,-2.713239931337085,0.35815160633437093
11.24856217,0.6927705983277457,-2.7388049826528866,0.42238217746596995
11.25848617,0.7724541434717767,-2.76457591272782,0.48315359596480556
11.26841117,0.8517851480801641,-2.7907414436806333,0.5403156767216182
11.27833517,0.930322353976694,-2.817468801852904,0.5937591595890466
11.28826017,1.0076181594536422,-2.844898692018965,0.6434139319859471
11.29818417,1.0832223881424254,-2.8731405981680416,0.6892468255580981
11.30810917,1.1566860865043096,-2.902268494287997,0.7312590495603394
11.31803317,1.2275653109060936,-2.9323170447464055,0.7694833227393765
11.32795817,1.2954248695399595,-2.9632783678855192,0.8039807627256572
11.33788217,1.359841988049331,-2.99509942917368,0.8348375879727916
11.34780617,1.42040987018734,-3.0276801222007754,0.862161683061411
11.35773117,1.4767411262689103,-3.060872087014887,0.8860790745534497
11.36765517,1.5284710430362731,-3.0944783054467786,0.9067303619624221
11.37758017,1.57526066928846,-3.1282535017410904,0.9242671466926778
11.38750417,1.6167996924069319,-3.1619053638702,0.9388485005085744
11.39742917,1.652809081676996,-3.195096586708486,0.9506375136504678
11.40735317,1.683043475003331,-3.2274477235276517,0.9597979607086502
11.41727817,1.707293286374353,-3.258540817825919,0.9664911196272029
11.42720217,1.7253865124737817,-3.2879237739058307,0.9708727758386996
11.43712717,1.7371902183121988,-3.3151154121752935,0.9730904399701669
11.44705117,1.7426116836071803,-3.3396111439613545,0.9732808045183031
11.45697617,1.7415991936871797,-3.3608891906531393,0.9715674629950822
11.46690017,1.7341424608031695,-3.378417263119701,0.9680589143967103
11.47682517,1.7202726640469588,-3.391659609510463,0.9628468758379525
11.48674917,1.700062098974032,-3.4000843327835986,0.9560049257621522
11.49667317,1.6736234317908334,-3.403170873759686,0.9475874983239869
11.50659817,1.6411085574980044,-3.4004175513675077,0.9376292459075013
11.51652217,1.6027070663322298,-3.3913490492991567,0.9261447814893659
11.52644717,1.558644327970518,-3.3755237377633946,0.9131288064337271
11.53637117,1.5091792082826627,-3.3525407204629496,0.8985566233308891
11.54629617,1.4546014390948918,-3.3220465001175032,0.8823850285110862
11.55622017,1.3952286674746448,-3.283741160553798,0.8645535751289639
11.56614517,1.3314032172732846,-3.2373839695256774,0.8449861948648792
11.57606917,1.2634886018373799,-3.1827983141447227,0.8235931637334221
11.58599417,1.1918658327633602,-3.1198758901919796,0.8002733947271636
11.59591817,1.1169295751575352,-3.048580077488618,0.7749170366192607
11.60584317,1.0390842047688043,-2.9689484455595947,0.7474083537237034
11.61576717,0.9587398261866673,-2.881094346673369,0.7176288554460787
11.62569217,0.8763083137042484,-2.7852075667758234,0.6854606372540835
11.63561617,0.792199437241675,-2.6815540186814344,0.6507898869720415
11.64554117,0.7068171348488371,-2.5704744757737723,0.6135105028311294
11.65546517,0.6205559907998213,-2.452382357804383,0.5735277630865611
11.66539017,0.5337979742919111,-2.327760592559456,0.5307619819995688
11.67531417,0.4469094885099909,-2.197157587879842,0.4851520846875761
11.68523817,0.36023877362562484,-2.0611823579011412,0.43665903470237005
11.69516317,0.27411370045861466,-1.9204988558989984,0.38526905315516025
11.70508717,0.18883998417411252,-1.7758195743905034,0.33099657548434896
11.71501217,0.10469983944886585,-1.627898481692301,0.2738868995270368
11.72493617,0.021951089842977153,-1.4775233732471857,0.21401848457240435
11.73486117,-0.05917326540334421,-1.3255077256173204,0.1515048647465651
11.74478517,-0.1384650340702198,-1.172682150704135,0.08649614185395113
11.75471017,-0.21574038041360616,-1.0198855569797012,0.019180023855868533
11.76463417,-0.2908389686296362,-0.867956132881605,-0.050217623371871786
11.77455917,-0.3636227367223331,-0.7177222747219516,-0.12143274087701476
11.78448317,-0.43397434498876886,-0.5699935871029339,-0.1941635842622066
11.79440817,-0.501795349382593,-0.4255520873001876,-0.2680717953728636
11.80433217,-0.5670041538897223,-0.2851437456639664,-0.3427840529371318
