Time (s),X (m/s^2),Y (m/s^2),Z (m/s^2)
6.009029583,0.15551179856095595,0.13119361987227068,-0.3627817027694896
6.018955583,0.11089589884084004,-0.14551716339071186,-0.2878484684513747
6.028880583,0.06704794966045421,-0.4136216413321736,-0.2099443527713454
6.038806583,0.024396010043227775,-0.6702828639203915,-0.12948751904783307
6.048731583,-0.01663648878405439,-0.9128594448061206,-0.046929028486721105
6.058656583,-0.055635541415675664,-1.138945852733581,0.037246764402118285
6.068582583,-0.09220124317011939,-1.3464089086638489,0.12252251620833955
6.078507583,-0.12595224925134588,-1.533419812747804,0.20834902088586432
6.088432583,-0.15652995221505078,-1.6984811007897218,0.2941472393696488
6.098358583,-0.1836023473416282,-1.8404480170672761,0.37931126751978533
6.108283583,-0.20686759712748806,-1.9585438866239686,0.4632122306653456
6.118209583,-0.22605734616680262,-2.0523691729685343,0.5452030541715904
6.128134583,-0.24093986646616403,-2.1219040155137923,0.624624034928268
6.138059583,-0.25132312430262255,-2.1675041552758927,0.7008091276318477
6.147985583,-0.2570578527152452,-2.1898902775001683,0.7730928533044836
6.157910583,-0.2580406912395076,-2.1901309259391653,0.8408177256088667
6.167836583,-0.2542174176118046,-2.1696192749970007,0.903342070494097
6.177761583,-0.2455862446273363,-2.130044179373121,0.960048092743094
6.187686583,-0.23220109302115186,-2.073356047619366,1.0103500274663635
6.197612583,-0.21417468982286406,-2.001728195568497,1.0537022094565605
6.207537583,-0.1916812962663478,-1.9175144211392339,1.0896068984498943
6.217463583,-0.16495884984503195,-1.8232036028914211,1.1176217123661227
6.227388583,-0.13431031143222869,-1.7213721639296438,1.1373665406253726
6.237313583,-0.10010403373394434,-1.6146352644830286,1.148529830960626
6.247239583,-0.06277300430041449,-1.5055975950463505,1.1508741620374388
6.257164583,-0.022812859992599462,-1.3968046407558166,1.1442410301936614
6.267090583,0.01922138313188364,-1.2906952774749523,1.1285547932207753
6.277015583,0.06271989365473128,-1.1895565387080702,1.1038257279875192
6.286940583,0.10702384880189476,-1.0954813567263122,1.0701521706285204
6.296866583,0.15143244977347287,-1.0103300295379714,1.027721716135813
6.306791583,0.1952110328588015,-0.9356960987082901,0.97681145782045
6.316717583,0.23760016185006952,-0.872877244728626,0.9177872473322946
6.326642583,0.27782557422813836,-0.8228517202362058,0.851101954757316
6.336567583,0.3151088447144054,-0.7862607496325017,0.7772927076457874
6.346493583,0.3486786236634221,-0.7633972279876811,0.6969770892377548
6.356418583,0.37778230304061144,-0.7542009527347514,0.6108482812032427
6.366344583,0.40169795796242863,-0.7582605178720924,0.5196691460091175
6.376269583,0.4197464058372561,-0.7748218915341091,0.42426525829812173
6.386194583,0.431303217548373,-0.8028035841406248,0.3255169118404777
6.396120583,0.43581050609003097,-0.8408181974801667,0.22435014690783125
6.406045583,0.43278830826879516,-0.8872000275096179,0.12172686121396425
6.415971583,0.4218453652496151,-0.9400382781948973,0.01863408556218826
6.425896583,0.4026890985588831,-0.9972153333038819,-0.08392747677684546
6.435821583,0.3751345705495096,-1.056449430665488,-0.18495552992599942
6.445747583,0.33911221360503724,-1.11534099177333,-0.2834587492748188
6.455672583,0.29467411216191347,-1.171421780719084,-0.3784696756987695
6.465598583,0.24199862754436202,-1.2222060011256548,-0.46905776763989604
6.475523583,0.18139316875361838,-1.2652423879569525,-0.554342419440464
6.485448583,0.11329493326765278,-1.2981663127630942,-0.633505735452453
6.495374583,0.03826947065745991,-1.3187508970617787,-0.7058048319014298
6.505299583,-0.042993041762790465,-1.3249561215194061,-0.7705834238882172
6.515225583,-0.12968387809970727,-1.314974931376508,-0.8272824455412808
6.525150583,-0.220884213318812,-1.2872753734926368,-0.8754494496381386
6.535075583,-0.31557590014439624,-1.2406378582805995,-0.9147465405447163
6.545001583,-0.41265446725141247,-1.1741867200878784,-0.9449566113255761
6.554926583,-0.5109441671721147,-1.0874153512432476,-0.9659876821760912
6.564852583,-0.6092148384290325,-0.9802043076190378,-0.9778751730513604
6.574777583,-0.7062002875952833,-0.8528319274877816,-0.9807819885790993
6.584702583,-0.8006178470783323,-0.7059771700123875,-0.9749963472775793
6.594628583,-0.8911887271052317,-0.5407145605570639,-0.9609273472768579
6.604553583,-0.976658757653716,-0.35850131808046076,-0.9390983219709419
6.614479583,-1.0558191068448861,-0.16115692381104904,-0.9101380943023749
6.624404583,-1.1275265633130798,0.04916443942707672,-0.874770282823602
6.634329583,-1.1907229783464865,0.2700079973623778,-0.8338008466895661
6.644255583,-1.2444534779260266,0.49865833603160165,-0.7881040843011776
6.654180583,-1.2878830752686472,0.7321843827709612,-0.7386073249999007
6.664106583,-1.32031134187794,0.9674885225435017,-0.6862745764174
6.674031583,-1.3411848305955558,1.201358895762349,-0.632089411565999
6.683956583,-1.3501069886219101,1.4305238842169534,-0.5770373981461671
6.693882583,-1.3468453515350949,1.651707772021498,-0.5220883858743102
6.703807583,-1.3313358688855164,1.8616865681605645,-0.46817897436283146
6.713733583,-1.3036842747451691,2.0573429948370694,-0.41619548384929655
6.723658583,-1.2641644793629683,2.2357196792506584,-0.36695774443433815
6.733583583,-1.2132140184265492,2.394069633452312,-0.3212040073145299
6.743509583,-1.1514266531611677,2.5299031660430606,-0.2795772646192936
6.753434583,-1.0795422673467672,2.6410304400914586,-0.2426132435403016
6.763360708,-0.9984342565216159,2.725598973611373,-0.2107303158591939
6.773285708,-0.9090946504657098,2.7821254720476536,-0.18422153587871593
6.783210708,-0.812617252595916,2.809521485675501,-0.1632489881995461
6.793136708,-0.7101791188109197,2.807112497123611,-0.14784059175809947
6.803061708,-0.603020732791662,2.7746501632679146,-0.1378894678899545
6.812987708,-0.49242526364782335,2.712317558922276,-0.13315593757529492
6.822912708,-0.37969731383622557,2.620727394055278,-0.1332721661307138
6.832837708,-0.2661415792879853,2.500913298466073,-0.13774942240465005
6.842763708,-0.15304184866080126,2.3543143851142094,-0.14598786446864032
6.852688708,-0.04164076360369853,2.182753413619176,-0.15728870582014587
6.862614708,0.0668792542634997,1.9884089773293465,-0.17086855666340403
6.872539708,0.171413532535587,1.7737822288453977,-0.1858756760603913
6.882464708,0.27095079798309496,1.5416587371366781,-0.20140781563443802
6.892390708,0.36458666613775986,1.2950661317218,-0.21653128745932937
6.902315708,0.4515347534921627,1.037228234987471,-0.2303008507233024
6.912241708,0.5311352652444253,0.771516414452938,-0.24177998552437116
6.922166708,0.6028609829927957,0.5013989062394684,-0.2500611082371841
6.932091708,0.6663206466103638,0.2303888726909541,-0.2542852810279509
6.942017708,0.7212597910084442,-0.038008036836337626,-0.2536609781545802
6.951942708,0.767559160808811,-0.3003458521222626,-0.2474814941679031
6.961868708,0.8052308827997346,-0.553289410658778,-0.23514061482701423
6.971793708,0.8344126245405339,-0.7936636975056043,-0.21614622082990215
6.981718708,0.8553600035218784,-1.0185006677984612,-0.1901315564542204
6.991644708,0.8684375317947851,-1.2250828548472978,-0.15686396694619484
7.001569708,0.8741083858136639,-1.4109831063935787,-0.11625098469097624
7.011495708,0.8729232829069923,-1.5740998385965832,-0.06834371807602288
7.021420708,0.8655087271428702,-1.7126872522777419,-0.013337562136186245
7.031345708,0.8525548597403274,-1.8253800210173106,0.048429697326516745
7.041271708,0.8348031129290372,-1.9112120384276425,0.11648227432899615
7.051196708,0.8130338225945107,-1.9696289029691696,0.19021312519028644
7.061122708,0.788053907671998,-2.0004939204134233,0.2688928753179521
7.071047708,0.7606846785040324,-2.0040875116732337,0.3516807449961501
7.080972708,0.7317497986412933,-1.9811000221598134,0.437637280543629
7.090898708,0.7020634008815316,-1.9326180341233516,0.5257386950688777
7.100823708,0.6724183528034742,-1.8601043841948766,0.6148926171941739
7.110749708,0.6435746806938957,-1.765372187310095,0.7039550284508207
7.120674708,0.616248191680825,-1.6505532706521342,0.7917481412423925
7.130599708,0.5910993780525079,-1.518061529016672,0.8770789353700145
7.140525708,0.568722739009786,-1.3705518192965254,0.9587580377777773
7.150450708,0.5496367044982393,-1.2108751036125927,1.0356186033602945
7.160376708,0.5342743828387897,-1.0420306170885947,1.1065348423130394
7.170301708,0.522975370951277,-0.8671158744966906,1.170439847733697
7.180226708,0.5159788616144186,-0.6892753444697929,1.2263424054745706
7.190152708,0.5134182603877384,-0.5116486184814182,1.2733425095958724
7.200077708,0.5153174913034722,-0.3373188917871108,1.310645351789174
7.210003708,0.521589129998724,-0.16926255949958582,1.3375735946352576
7.219928708,0.5320344585711035,-0.010300713083141708,1.3535777747480733
7.229854708,0.5463454898427621,0.13694670263044953,1.3582447157155662
7.239779708,0.564108961585974,0.2701033484918407,1.3513038651944798
7.249704708,0.5848122558444457,0.38707489296042996,1.3326315048022266
7.259630708,0.6078511569526547,0.4860827462599175,1.3022528128595277
7.269555708,0.6325393253313144,0.565692587837627,1.2603417874570992
7.279481708,0.6581193326991991,0.6248372262844047,1.2072190619192351
7.289406708,0.6837750778285125,0.6628334139368741,1.1433476681955324
7.299331708,0.7086453805596945,0.6793923260367815,1.0693268267830216
7.309257708,0.7318385359902195,0.6746235063866824,0.9858838642099881
7.319182708,0.7524476009429556,0.6490321777358885,0.8938643802725368
7.329108708,0.7695661806699691,0.6035099154192258,0.7942208067111383
7.339033708,0.7823044839840831,0.5393187864788136,0.6879995169056006
7.348958708,0.7898054177381306,0.4580691623809852,0.5763266627664868
7.358884708,0.7912604948160569,0.3616915195582291,0.46039293047360713
7.368809708,0.7859253320037105,0.2524026460557419,0.3414374209207439
7.378735708,0.7731345145421202,0.13266677223044485,0.2207308735652611
7.388660708,0.7523156031049176,0.005152236489021863,0.09955846403740498
7.398585708,0.7230020574091426,-0.1273156188055982,-0.020797583671288984
7.408511708,0.6848448499817279,-0.2618045530357967,-0.13907532123982627
7.418436708,0.6376225451358991,-0.3953277060117837,-0.2540500822894487
7.428362708,0.581249623445722,-0.5248971741064911,-0.36455091682944685
7.438287708,0.5157828425030234,-0.6475779749226358,-0.4694762045600714
7.448212708,0.4414254417669662,-0.7605414712196266,-0.5678082069334828
7.458138708,0.35852902338092435,-0.8611173170054333,-0.6586263312564229
7.468063708,0.26759297156191275,-0.9468429933038603,-0.7411188974124592
7.477989708,0.16926130969722253,-1.015510018886728,-0.8145932184910039
7.487914708,0.06431693588565021,-1.0652059540365226,-0.878483830098413
7.497839708,-0.046326775749499574,-1.0943513657087423,-0.9323587292829001
7.507765708,-0.16163696851652926,-1.1017309926388648,-0.9759235137934769
7.517690708,-0.28047479380032436,-1.0865184404607928,-1.009023347383021
7.527616708,-0.4016112381073992,-1.0482938502611852,-1.0316427177144483
7.537541708,-0.5237450603424069,-0.9870541186408928,-1.0439029985351578
7.547466708,-0.6455225497180644,-0.9032154014190464,-1.04605787360479
7.557392708,-0.7655587569103549,-0.7976078031846651,-1.0384867228785792
7.567317708,-0.8824598013276215,-0.6714623357907586,-1.021686109902823
7.577243708,-0.9948458172653226,-0.5263904130954175,-0.9962595431444312
7.587168708,-1.1013740727953119,-0.36435632697174897,-0.9629057131395077
7.597093708,-1.2007617789719478,-0.1876433105187564,-0.9224054313159255
7.607019708,-1.2918081043978242,0.00118606949338696,-0.87560751438042
7.616944708,-1.373414921913943,0.19933434194163838,-0.8234138702071194
7.626870708,-1.444605840075324,0.4038174571065697,-0.7667640476845256
7.636795708,-1.5045431111259144,0.6115160377219391,-0.7066195144584959
7.646720708,-1.5525420574477995,0.8192285669172908,-0.6439479237681016
7.656646708,-1.5880827176182337,1.0237255316368157,-0.5797076260271842
7.666571708,-1.6108184789714088,1.2218035651715577,-0.5148326736109702
7.676497708,-1.620581533324641,1.4103386693862843,-0.4502185582702123
7.686422708,-1.617385063053663,1.586337641758811,-0.38670890836468025
7.696347708,-1.601422132708474,1.7469868828069501,-0.32508335650609893
7.706273708,-1.5730613246612808,1.8896978161852984,-0.2660467671996147
7.716198708,-1.5328392153603996,2.012148217700183,-0.21021998956416615
7.726124708,-1.4814498424304743,2.1123188212922517,-0.15813227322706644
7.736049708,-1.4197313633925674,2.188524649486847,-0.11021545678207358
7.745974708,-1.3486501552299217,2.239440602326766,-0.06680000826995683
7.755900708,-1.2692826508792987,2.2641209317792104,-0.02811296632014112
7.765825292,-1.1827952538405175,2.262012327391375,0.005722200915094422
7.775751292,-1.090422714704672,2.232960442652602,0.03468383400357192
7.785676292,-0.9934453921177898,2.177209799062816,0.058848465285693735
7.795601292,-0.8931658536227189,2.0953971154191775,0.0783854275619809
7.805527292,-0.7908852968861544,1.9885382225576362,0.09354980287355585
7.815452292,-0.6878802873043449,1.858008837691297,0.10467385961469088
7.825378292,-0.5853803129500742,1.7055195859465566,0.11215715949189636
7.835303292,-0.48454665179234113,1.533085767190993,0.11645554773414847
7.845228292,-0.38645302784792485,1.3429924694715052,0.11806926978280224
7.855154292,-0.2920684997517355,1.137755719652472,0.11753048458837283
7.865079292,-0.20224297464836508,0.9200804299770448,0.1153904659176829
7.875005292,-0.11769567247472518,0.6928159422054747,0.11220679361212856
7.884930292,-0.039006783733844766,0.4589099890993012,0.1085308318410721
7.894856292,0.03338752849634106,0.2213618891738032,0.10489577069190215
7.904781292,0.09919673154435642,-0.01682423149467849,0.10180547543582541
7.914706292,0.15827418505817095,-0.25268543203970517,0.09972435079696677
7.924632292,0.21061222036597346,-0.48334444814192606,0.09906839023014587
7.934557292,0.25633429325166096,-0.7060520099035938,0.10019754456557295
7.944483292,0.29568454938558375,-0.9182263580751135,0.10340951093959107
7.954408292,0.3290152057311838,-1.1174893756952047,0.10893501263623642
7.964333292,0.3567721937090543,-1.3016988015474031,0.11693461461874172
7.974259292,0.3794795299177107,-1.4689760479070981,0.12749709714820343
7.984184292,0.3977228769279658,-1.6177292110809374,0.14063938495600026
7.994110292,0.4121327286457102,-1.7466709434308192,0.1563079930675312
8.004035292,0.42336760266976226,-1.8548309523804252,0.17438190065341105
8.013960292,0.4320975530989386,-1.9415630007764046,0.19467671498449074
8.023886292,0.43898824458011837,-2.0065463912056263,0.21694995962141606
8.033811292,0.4446857649875533,-2.04978201122075,0.24090732114771868
8.043737292,0.44980230779554137,-2.0715830926658327,0.2662097030595528
8.053662292,0.45490282920394903,-2.0725609024626404,0.29248094517864454
8.063587292,0.4604927797115809,-2.053605645103612,0.3193160637939543
8.073513292,0.4670070225885839,-2.015862929023435,0.3462898533866982
8.083438292,0.47480007767590576,-1.9607062351664235,0.3729656719295808
8.093364292,0.4841378612667082,-1.889705921326882,0.3989042169430437
8.103289292,0.4951911219255746,-1.8045953851785468,0.4236720949899567
8.113214292,0.5080307864117708,-1.7072350764087443,0.4468499937427581
8.123140292,0.522625420168862,-1.599575086690017,0.4680402804866846
8.133065292,0.5388409709206189,-1.4836170575092689,0.4868738720509044
8.142991292,0.5564429067988992,-1.3613761363967114,0.5030162476634739
8.152916292,0.5751007903035837,-1.2348436878536664,0.516172505776642
8.162841292,0.5943952535508383,-1.1059514307143439,0.5260913954869787
8.172767292,0.613827263982616,-0.976537631448,0.5325682815114011
8.182692292,0.6328294974598723,-0.8483159339452092,0.5354470289893508
8.192618292,0.6507795722924055,-0.7228473507696385,0.5346208197385321
8.202543292,0.6670148477623755,-0.6015158793265374,0.5300319324545035
8.212468292,0.6808484561630398,-0.48550814036909473,0.5216705341635294
8.222394292,0.6915862171040341,-0.3757973671204244,0.5095725404798133
8.232319292,0.6985440737464544,-0.2731320012366834,0.49381661129744125
8.242245292,0.7010656898602835,-0.17802907579864588,0.474520359187086
8.252170292,0.6985398524750415,-0.09077248417123245,0.4518358605521134
8.262096292,0.6904173365899204,-0.011416146633968336,0.42594457345567943
8.272021292,0.6762269050650687,0.0602080044549152,0.397051779418968
8.281946292,0.6555901370114858,0.12447739283606986,0.3653806781992466
8.291872292,0.6282347999955084,0.18196178278865502,0.3311662740032014
8.301797292,0.5940065039278504,0.2334022295438042,0.29464919878391954
8.311722292,0.5528783973780279,0.2796864258974118,0.25606962339479233
8.321648292,0.504958690722707,0.3218209478146809,0.2156614102672561
8.331573292,0.4504958155654224,0.3609009648491438,0.17364666129972528
8.341499292,0.3898810566163412,0.398078033257777,0.13023081094953393
8.351424292,0.3236485209659472,0.43452662988010066,0.08559840641592181
8.361350292,0.25247234081469644,0.47141011316547216,0.039909704099458446
8.371275292,0.17716103988773307,0.5098468150823894,-0.0067018053430332875
8.381200292,0.09864903191336642,0.5508769751887089,-0.0541308514515013
8.391126292,0.017985262690884244,0.5954312262607832,-0.10230074974266655
8.401051292,-0.06368094393662356,0.6443013285044829,-0.15116263745485764
8.410977292,-0.14511672159874506,0.6981138242616858,-0.20069356710633585
8.420902292,-0.22502500499991956,0.7573072448878904,-0.25089347634841086
8.430827292,-0.30206614633027956,0.822113444644867,-0.3017810841776386
8.440753292,-0.374881505538639,0.8925435629369868,-0.3533887958610804
8.450678292,-0.4421186508205135,0.9683790268526051,-0.4057567308715908
8.460604292,-0.5024577405513813,1.049167901623383,-0.4589260180116055
8.470529292,-0.5546385941470867,1.1342267778510806,-0.5129315285551738
8.480454292,-0.5974879012382736,1.2226482523711348,-0.5677942410389479
8.490380292,-0.6299459722966347,1.3133139180391236,-0.6235134490884645
8.500305292,-0.6510924052451708,1.404912633368092,-0.680059034678847
8.510231292,-0.6601700352920769,1.495963704276589,-0.7373640325081033
8.520156292,-0.6566065507705806,1.5848444845936922,-0.7953177067914918
8.530081292,-0.6400331959397351,1.6698217943201452,-0.8537593504855153
8.540007292,-0.6103000404258576,1.7490864679639557,-0.9124730000093896
8.549932292,-0.5674873702667117,1.8207902813346857,-0.9711832378134775
8.559858292,-0.5119128421654776,1.8830844642865974,-1.0295522324638187
8.569783292,-0.4441341353319633,1.9341589873571883,-1.087178142360115
8.579708292,-0.3649469300324628,1.9722818087783178,-1.1435949850504277
8.589634292,-0.27537813636756975,1.9958372814878165,-1.1982740489413233
8.599559292,-0.1766743902700604,2.003362945363456,-1.2506268970859753
8.609485292,-0.0702859264163793,1.9935839674374267,-1.300009982779626
8.619410292,0.042153970615001736,1.9654445427465985,-1.3457308640105807
8.629336292,0.15885364617911546,1.9181356310334576,-1.387055969796529
8.639261292,0.2778915100120739,1.851118479291854,-1.42321983799907
8.649186292,0.3972477686269829,1.7641434657571586,-1.4534357127861794
8.659112292,0.514838925513005,1.6572638951061438,-1.4769073609873216
8.669037292,0.6285544538360548,1.5308444745626288,-1.4928419399194075
8.678963292,0.7362949910242222,1.3855643034353695,-1.5004637244605248
8.688888292,0.8360113604468333,1.2224143117310087,-1.4990284780549368
8.698813292,0.9257436933003244,1.0426891846607655,-1.4878382309942395
8.708739292,1.0036599043056016,0.8479739073668877,-1.4662562098557783
8.718664292,1.068092768010176,0.6401251569326254,-1.4337216446657612
8.728590292,1.117574848279328,0.4212478561098523,-1.389764165715783
8.738515292,1.1508705520256373,0.19366728442171577,-1.334017490633738
8.748440292,1.1670046099508928,-0.040102784481627005,-1.2662320949280548
8.758366292,1.1652863330877121,-0.2773953879669233,-1.1862865567078542
8.768291167,1.1453290551074118,-0.515428541528586,-1.0941972703382148
8.778217167,1.1070642467818528,-0.7513456510806547,-0.9901262370387686
8.788142167,1.0507498796967398,-0.9822575283234241,-0.8743866658510038
