Time (s),Acceleration x (m/s^2),Acceleration y (m/s^2),Acceleration z (m/s^2)
4.000519867,-2.1768790178520996e+20,1.0773033162770442e+18,-7.228401414427546e+17
4.0025199,-2.182533783593023e+20,1.068476262341846e+18,-7.224803341853542e+17
4.004519933,-2.1881124114037e+20,1.0596661800154112e+18,-7.221035209809582e+17
4.006519933,-2.193615057273427e+20,1.0508731920252928e+18,-7.2170982973312e+17
4.008519933,-2.1990418792503706e+20,1.0420974196330701e+18,-7.212993880113777e+17
4.010519933,-2.2043930374650357e+20,1.0333389826521979e+18,-7.208723230415094e+17
4.012519933,-2.209668694152425e+20,1.0245979994656655e+18,-7.204287616955259e+17
4.014519933,-2.2148690136728548e+20,1.015874587043458e+18,-7.199688304814152e+17
4.016519933,-2.2199941625314043e+20,1.0071688609598065e+18,-7.194926555326597e+17
4.018519899,-2.2250443093959508e+20,9.984809354102129e+17,-7.19000362597544e+17
4.020519865,-2.2300196251137343e+20,9.898109232282348e+17,-7.184920770282742e+17
4.022519831,-2.2349202827263948e+20,9.811589359020206e+17,-7.179679237699369e+17
4.024519797,-2.2397464574834298e+20,9.725250835905935e+17,-7.174280273493289e+17
4.026519763,-2.2444983268540232e+20,9.639094751398769e+17,-7.168725118636954e+17
4.028519729,-2.2491760705371845e+20,9.553122180984596e+17,-7.163015009694147e+17
4.030519695,-2.25377987047014e+20,9.467334187331062e+17,-7.157151178706698e+17
4.032519661,-2.2583099108349287e+20,9.381731820440146e+17,-7.151134853081477e+17
4.034519527,-2.2627663780631596e+20,9.296316117798267e+17,-7.144967255478026e+17
4.03651956,-2.267149460838896e+20,9.211088104523889e+17,-7.138649603697111e+17
4.038519593,-2.2714593500996462e+20,9.126048793512724e+17,-7.132183110570383e+17
4.040519626,-2.2756962390354402e+20,9.041199185580605e+17,-7.125568983851325e+17
4.042519659,-2.2798603230859913e+20,8.956540269604106e+17,-7.118808426107648e+17
4.044519692,-2.2839517999359433e+20,8.872073022659e+17,-7.111902634615368e+17
4.046519725,-2.2879708695082146e+20,8.787798410156646e+17,-7.104852801254738e+17
4.048519125,-2.29191773395546e+20,8.703717385978337e+17,-7.097660112408248e+17
4.050518725,-2.2957925976496433e+20,8.619830892607611e+17,-7.090325748860938e+17
4.052518691,-2.2995956671697047e+20,8.536139861260513e+17,-7.08285088570327e+17
4.054517757,-2.3033271512873278e+20,8.452645212013834e+17,-7.07523669223682e+17
4.056517723,-2.3069872609507934e+20,8.369347853931397e+17,-7.067484331883028e+17
4.058517689,-2.310576209266931e+20,8.286248685188465e+17,-7.059594962095196e+17
4.060517655,-2.3140942114811832e+20,8.203348593194342e+17,-7.051569734273925e+17
4.062517621,-2.3175414849557915e+20,8.120648454713231e+17,-7.04340979368618e+17
4.064517154,-2.3209182491461288e+20,8.038149135983299e+17,-7.035116279388047e+17
4.066517154,-2.324224725575184e+20,7.955851492833956e+17,-7.026690324151194e+17
4.068517187,-2.3274611378062177e+20,7.873756370801367e+17,-7.018133054393006e+17
4.07051722,-2.3306277114136075e+20,7.791864605242245e+17,-7.009445590110382e+17
4.072517253,-2.3337246739519242e+20,7.71017702144598e+17,-7.000629044817172e+17
4.074517286,-2.336752254923288e+20,7.62869443474516e+17,-6.991684525485292e+17
4.076517319,-2.339710685743056e+20,7.547417650624563e+17,-6.982613132489441e+17
4.078517352,-2.3426001997038984e+20,7.466347464828733e+17,-6.97341595955543e+17
4.080517385,-2.3454210319383213e+20,7.385484663468145e+17,-6.964094093712005e+17
4.082517418,-2.3481734193796848e+20,7.304830023123978e+17,-6.95464861524607e+17
4.084517418,-2.350857600721769e+20,7.224384310951567e+17,-6.945080597661204e+17
4.086517418,-2.3534738163769436e+20,7.144148284782541e+17,-6.935391107639357e+17
4.088517418,-2.3560223084330012e+20,7.064122693225667e+17,-6.92558120500565e+17
4.090517418,-2.3585033206087365e+20,6.984308275766323e+17,-6.915651942696223e+17
4.092517418,-2.360917098208373e+20,6.904705762864568e+17,-6.905604366729073e+17
4.094517418,-2.3632638880749296e+20,6.825315876051722e+17,-6.895439516177838e+17
4.096517384,-2.3655439385426238e+20,6.746139328025416e+17,-6.885158423148472e+17
4.09851735,-2.3677574993884034e+20,6.66717682274304e+17,-6.874762112758712e+17
4.100517316,-2.369904821782716e+20,6.588429055513487e+17,-6.864251603120271e+17
4.102517282,-2.371986158239613e+20,6.509896713087058e+17,-6.853627905323694e+17
4.104517248,-2.374001762566296e+20,6.431580473743442e+17,-6.842892023425843e+17
4.106517214,-2.3759518898122103e+20,6.353481007377664e+17,-6.832044954439967e+17
4.108517814,-2.3778367962177628e+20,6.275598975583928e+17,-6.821087688328356e+17
4.11051818,-2.379656739162743e+20,6.197935031737313e+17,-6.810021207997573e+17
4.11251818,-2.3814119771145083e+20,6.120489821073234e+17,-6.798846489296148e+17
4.114519113,-2.3831027695759917e+20,6.04326398076461e+17,-6.787564501014579e+17
4.116519146,-2.3847293770336043e+20,5.966258139996692e+17,-6.77617620488745e+17
4.118519179,-2.3862920609051024e+20,5.889472920039516e+17,-6.764682555597507e+17
4.120519212,-2.3877910834874915e+20,5.812908934317937e+17,-6.753084500781568e+17
4.122519245,-2.3892267079050356e+20,5.7365667884792064e+17,-6.74138298103809e+17
4.124519711,-2.390599198057452e+20,5.6604470804580506e+17,-6.72957892993621e+17
4.126519744,-2.391908818568353e+20,5.584550400539192e+17,-6.717673274026107e+17
4.128519744,-2.3931558347339858e+20,5.508877331417252e+17,-6.705666932850575e+17
4.13051971,-2.3943405124723383e+20,5.433428448253993e+17,-6.69356081895768e+17
4.132519676,-2.3954631182726647e+20,5.358204318732887e+17,-6.681355837914388e+17
4.134519309,-2.396523919145506e+20,5.2832055031110195e+17,-6.669052888321106e+17
4.136519275,-2.3975231825732646e+20,5.2084325542683904e+17,-6.656652861827113e+17
4.138519241,-2.3984611764614044e+20,5.133886017754629e+17,-6.644156643146854e+17
4.140519207,-2.399338169090347e+20,5.05956643183316e+17,-6.631565110077092e+17
4.142519173,-2.4001544290681514e+20,4.985474327522847e+17,-6.618879133514947e+17
4.144519173,-2.4009102252840478e+20,4.9116102286371174e+17,-6.606099577476936e+17
4.146519206,-2.4016058268628812e+20,4.837974651820595e+17,-6.593227299119084e+17
4.148519239,-2.402241503120518e+20,4.7645681065832806e+17,-6.58026314875821e+17
4.150519272,-2.402817523520268e+20,4.691391095332357e+17,-6.567207969894513e+17
4.152519305,-2.4033341576303503e+20,4.618444113401656e+17,-6.554062599235543e+17
4.154519338,-2.40379167508245e+20,4.54572764907883e+17,-6.540827866721628e+17
4.156519371,-2.404190345531396e+20,4.4732421836302694e+17,-6.527504595552778e+17
4.158519404,-2.4045304386160086e+20,4.400988191323817e+17,-6.514093602217134e+17
4.160519437,-2.4048122239211274e+20,4.328966139449262e+17,-6.500595696521083e+17
4.162519437,-2.405035970940835e+20,4.257176488336599e+17,-6.487011681621187e+17
4.164520437,-2.405201949042897e+20,4.1856196913720166e+17,-6.473342354058015e+17
4.166520437,-2.4053104274344247e+20,4.1142961950115635e+17,-6.459588503792015e+17
4.168520437,-2.4053616751287468e+20,4.043206438792407e+17,-6.445750914241577e+17
4.170520437,-2.405355960913502e+20,3.9723508553416346e+17,-6.431830362323384e+17
4.172520437,-2.40529355331997e+20,3.901729870382541e+17,-6.41782761849515e+17
4.174520403,-2.405174720593671e+20,3.83134390273836e+17,-6.403743446800814e+17
4.176520369,-2.4049997306662565e+20,3.761193364333409e+17,-6.389578604918282e+17
4.178520335,-2.4047688511287145e+20,3.6912786601915904e+17,-6.375333844209797e+17
4.180520301,-2.4044823492058808e+20,3.621600188432251e+17,-6.361009909774991e+17
4.182520267,-2.404140491732243e+20,3.552158340263373e+17,-6.346607540506685e+17
4.184520233,-2.403743545129021e+20,3.4829534999720806e+17,-6.332127469149491e+17
4.186520199,-2.4032917753825277e+20,3.413986044912476e+17,-6.317570422361283e+17
4.188520165,-2.4027854480238104e+20,3.3452563454907955e+17,-6.302937120777544e+17
4.190520165,-2.4022248281095746e+20,3.276764765147858e+17,-6.288228279078636e+17
4.192520198,-2.401610180204403e+20,3.208511660338806e+17,-6.273444606059981e+17
4.194520564,-2.4009417683642745e+20,3.140497380510131e+17,-6.258586804705116e+17
4.196520597,-2.4002198561213933e+20,3.07272226807402e+17,-6.243655572261489e+17
4.19852063,-2.3994447064703382e+20,3.005186658380037e+17,-6.228651600318874e+17
4.200520663,-2.3986165818555315e+20,2.937890879684168e+17,-6.213575574890271e+17
4.202520696,-2.397735744160022e+20,2.8708352531152333e+17,-6.198428176495165e+17
4.204520729,-2.3968024546956044e+20,2.804020092638725e+17,-6.183210080245064e+17
4.206520729,-2.3958169741943007e+20,2.7374457050180634e+17,-6.167921955931197e+17
4.208520695,-2.3947795628012234e+20,2.671112389773312e+17,-6.152564468114278e+17
4.210520661,-2.3936904800688433e+20,2.6050204391373824e+17,-6.137138276216207e+17
4.212520627,-2.3925499849526765e+20,2.539170138009764e+17,-6.121644034613545e+17
4.214520593,-2.3913583358084042e+20,2.4735617639078477e+17,-6.10608239273257e+17
4.216520559,-2.3901157903904145e+20,2.4081955869159117e+17,-6.090453995145759e+17
4.218520525,-2.38882260585174e+20,2.343071869631854e+17,-6.07475948166952e+17
4.220520491,-2.38747903874535e+20,2.2781908671117594e+17,-6.058999487463014e+17
4.222520491,-2.3860853450267453e+20,2.2135528268123955e+17,-6.043174643128003e+17
4.224519491,-2.3846417800578282e+20,2.1491579885317376e+17,-6.027285574809549e+17
4.226519491,-2.383148598612014e+20,2.0850065843476378e+17,-6.011332904297462e+17
4.228519491,-2.381606054880569e+20,2.021098838554752e+17,-5.995317249128346e+17
4.230519491,-2.380014402480151e+20,1.957434967599849e+17,-5.979239222688143e+17
4.232519491,-2.3783738944615114e+20,1.8940151800156314e+17,-5.963099434315028e+17
4.234519491,-2.3766847833193107e+20,1.8308396763531853e+17,-5.946898489402542e+17
4.236519491,-2.3749473210029782e+20,1.7679086491132006e+17,-5.930636989502843e+17
4.238519491,-2.373161758928567e+20,1.7052222826760986e+17,-5.914315532429947e+17
4.240519524,-2.371328347991541e+20,1.6427807532311936e+17,-5.897934712362844e+17
4.242519157,-2.3694473385804353e+20,1.5805842287050266e+17,-5.88149511994839e+17
4.24451919,-2.3675189805913316e+20,1.5186328686890086e+17,-5.86499734240385e+17
4.246519223,-2.365543523443097e+20,1.456926824366514e+17,-5.84844196361897e+17
4.248519256,-2.3635212160933455e+20,1.3954662384395712e+17,-5.831829564257464e+17
4.250519289,-2.3614523070550875e+20,1.3342512450552986e+17,-5.815160721857833e+17
4.252518622,-2.359337044414038e+20,1.273281969732233e+17,-5.798436010933443e+17
4.254518622,-2.357175675846559e+20,1.2125585292866995e+17,-5.781656003071852e+17
4.256518588,-2.354968448638221e+20,1.1520810317593574e+17,-5.764821267033344e+17
4.258518054,-2.352715609702974e+20,1.091849576342057e+17,-5.747932368848609e+17
4.26051762,-2.3504174056029028e+20,1.0318642533051507e+17,-5.730989871915484e+17
4.262517586,-2.34807408256854e+20,9.721251439254144e+16,-5.713994337094702e+17
4.264517552,-2.3456858865197226e+20,9.126323204147264e+16,-5.696946322804567e+17
4.266517518,-2.343253063086978e+20,8.533858458496576e+16,-5.679846385114501e+17
4.268517518,-2.340775857633417e+20,7.94385774102121e+16,-5.6626950778374656e+17
4.270517518,-2.3382545152770966e+20,7.356321497712282e+16,-5.645492952621348e+17
4.272517551,-2.3356892809138117e+20,6.771250081164973e+16,-5.6282405590394266e+17
4.274517584,-2.3330803992402854e+20,6.188643749925472e+16,-5.6109384446800435e+17
4.276517617,-2.3304281147777168e+20,5.60850266785424e+16,-5.593587155235574e+17
4.27851765,-2.327732671895639e+20,5.030826903507123e+16,-5.576187234590766e+17
4.280517683,-2.3249943148360237e+20,4.455616429535808e+16,-5.558739224910536e+17
4.282517716,-2.3222132877375832e+20,3.88287112210913e+16,-5.541243666727265e+17
4.284516849,-2.3193898346602352e+20,3.3125907603567264e+16,-5.5237010990276454e+17
4.286516849,-2.3165241996096412e+20,2.744775025836544e+16,-5.506112059339049e+17
4.288516849,-2.313616626561733e+20,2.1794235020276704e+16,-5.488477083815383e+17
4.290516849,-2.3106673594871448e+20,1.6165356738499968e+16,-5.4707967073223014e+17
4.292516849,-2.3076766423754526e+20,1.0561109272122112e+16,-5.4530714635216486e+17
4.294516849,-2.3046447192591355e+20,4981485485896004.0,-5.435301884954972e+17
4.296516782,-2.3015718342371574e+20,-573522753668624.0,-5.417488503125878e+17
4.298516782,-2.2984582314980855e+20,-6103924581886864.0,-5.399631848581028e+17
4.300516748,-2.295304155342635e+20,-1.1609730139138368e+16,-5.381732450989568e+17
4.302517048,-2.2921098502055448e+20,-1.709095057375072e+16,-5.3637908392208026e+17
4.304517014,-2.288875560676672e+20,-2.2547598044512256e+16,-5.345807541419955e+17
4.30651698,-2.2856015315212016e+20,-2.7979685722800416e+16,-5.327783085081861e+17
4.308516546,-2.2822880076988573e+20,-3.3387227794311936e+16,-5.3097179971224576e+17
4.310516512,-2.2789352343820278e+20,-3.877023946038138e+16,-5.29161280394794e+17
4.312517145,-2.2755434569727214e+20,-4.412873693887469e+16,-5.273468031521449e+17
4.314517111,-2.2721129211182685e+20,-4.946273746464499e+16,-5.255284205427159e+17
4.316517111,-2.2686438727257162e+20,-5.477225928953792e+16,-5.23706185093164e+17
4.318517644,-2.2651365579748514e+20,-6.005732168193421e+16,-5.2188014930424064e+17
4.320518077,-2.261591223329772e+20,-6.531794492581754e+16,-5.2005036565635635e+17
4.32251811,-2.258008115548945e+20,-7.05541503193568e+16,-5.1821688661484595e+17
4.324518143,-2.254387481693714e+20,-7.57659601729929e+16,-5.1637976463492454e+17
4.326518176,-2.2507295691352362e+20,-8.095339780702029e+16,-5.145390521663237e+17
4.328518209,-2.247034625559846e+20,-8.611648754865382e+16,-5.126948016575954e+17
4.330518242,-2.2433028989728326e+20,-9.125525472857114e+16,-5.108470655600758e+17
4.332518242,-2.2395346377006462e+20,-9.636972567692083e+16,-5.0899589633150106e+17
4.334517808,-2.2357300903915474e+20,-1.0145992771878733e+17,-5.071413464392673e+17
4.336517774,-2.2318895060147372e+20,-1.0652588916910349e+17,-5.052834683633275e+17
4.33851774,-2.2280131338580027e+20,-1.1156763932700237e+17,-5.034223145987231e+17
4.340517706,-2.2241012235239188e+20,-1.165852084696009e+17,-5.01557937657749e+17
4.342517672,-2.220154024924655e+20,-1.2157862784520909e+17,-4.996903900717517e+17
4.344518538,-2.2161717882754354e+20,-1.2654792966595878e+17,-4.978197243925622e+17
4.346518538,-2.2121547640867075e+20,-1.3149314709984627e+17,-4.959459931935657e+17
4.348518538,-2.2081032031550806e+20,-1.3641431426218458e+17,-4.940692490704056e+17
4.350518571,-2.2040173565530892e+20,-1.413114662064622e+17,-4.921895446413189e+17
4.352518604,-2.1998974756178362e+20,-1.461846389146066e+17,-4.903069325471027e+17
4.354518904,-2.195743811938597e+20,-1.5103386928665165e+17,-4.884214654507126e+17
4.356519004,-2.1915566173434518e+20,-1.5585919512980915e+17,-4.8653319603649434e+17
4.358519037,-2.1873361438850233e+20,-1.6066065514694528e+17,-4.846421770090588e+17
4.36051907,-2.1830826438254055e+20,-1.6543828892446515e+17,-4.827484610918103e+17
4.36251917,-2.1787963696203642e+20,-1.701921369196091e+17,-4.808521010251433e+17
4.36451917,-2.1744775739028852e+20,-1.749222404471662e+17,-4.789531495643208e+17
4.36651917,-2.1701265094661584e+20,-1.7962864166561178e+17,-4.770516594770478e+17
4.36851957,-2.1657434292460952e+20,-1.843113835626747e+17,-4.7514768354075494e+17
4.37051957,-2.1613285863034638e+20,-1.8897050994034304e+17,-4.7324127453960346e+17
4.37251957,-2.1568822338057273e+20,-1.9360606539931648e+17,-4.7133248526122445e+17
4.37451967,-2.152404625008676e+20,-1.982180953229143e+17,-4.694213684932065e+17
4.37651967,-2.1478960132379325e+20,-2.0280664586045107e+17,-4.6750797701934234e+17
4.378519636,-2.1433566518704e+20,-2.0737176391009024e+17,-4.655923636156406e+17
4.380519602,-2.1387867943157052e+20,-2.119134971011868e+17,-4.636745810461128e+17
4.382519568,-2.1341866939976883e+20,-2.164318937761308e+17,-4.6175468205834445e+17
4.384519534,-2.1295566043359766e+20,-2.2092700297170586e+17,-4.598327193788616e+17
4.3865195,-2.1248967787276743e+20,-2.2539887439997645e+17,-4.5790874570830234e+17
4.388519466,-2.120207470529206e+20,-2.2984755842871603e+17,-4.559828137164078e+17
4.390519432,-2.115488933038339e+20,-2.3427310606138803e+17,-4.540549760368466e+17
4.392519398,-2.1107414194764068e+20,-2.3867556891669197e+17,-4.521252852618916e+17
4.394519798,-2.105965182970752e+20,-2.430549992076882e+17,-4.501937939369641e+17
4.396519831,-2.101160476537389e+20,-2.4741144972051354e+17,-4.482605545550643e+17
4.398519864,-2.0963275530638852e+20,-2.5174497379270272e+17,-4.463256195511035e+17
4.400519897,-2.0914666652924353e+20,-2.5605562529112934e+17,-4.443890412961541e+17
4.40251993,-2.0865780658031218e+20,-2.603434585895813e+17,-4.4245087209163366e+17
4.404519963,-2.081662006997342e+20,-2.646085285459858e+17,-4.405111641634381e+17
4.406519996,-2.0767187410813793e+20,-2.6885089047929933e+17,-4.385699696560379e+17
4.408520029,-2.071748520050127e+20,-2.7307060014607872e+17,-4.366273406265528e+17
4.410520029,-2.066751595670961e+20,-2.7726771371674778e+17,-4.346833290388214e+17
4.412519995,-2.0617282194677616e+20,-2.814422877515735e+17,-4.3273798675747994e+17
4.414519695,-2.056678642705055e+20,-2.8559437917636378e+17,-4.3079136554206515e+17
4.416519661,-2.0516031163722446e+20,-2.8972404525789645e+17,-4.28843517041151e+17
4.418519627,-2.0465018911679185e+20,-2.938313435790889e+17,-4.268944927865313e+17
4.420519593,-2.0413752174842138e+20,-2.979163320139177e+17,-4.24944344187457e+17
4.422519559,-2.0362233453912156e+20,-3.019790687021005e+17,-4.229931225249377e+17
4.424519559,-2.031046524621378e+20,-3.060196120235489e+17,-4.210408789461243e+17
4.426519559,-2.0258450045539556e+20,-3.100380205726039e+17,-4.1908766445878426e+17
4.428519592,-2.0206190341994368e+20,-3.140343531320658e+17,-4.1713352992588646e+17
4.430519625,-2.015368862183994e+20,-3.180086686470349e+17,-4.151785260603085e+17
4.432519658,-2.0100947367339518e+20,-3.219610261985787e+17,-4.132227034196787e+17
4.434519158,-2.0047969056602718e+20,-3.258914849772406e+17,-4.112661124013609e+17
4.436519191,-1.9994756163430672e+20,-3.298001042564045e+17,-4.093088032375864e+17
4.438519224,-1.9941311157161506e+20,-3.3368694336553114e+17,-4.0735082599074406e+17
4.440520424,-1.988763650251615e+20,-3.375520616632801e+17,-4.053922305488353e+17
4.442520424,-1.983373465944439e+20,-3.413955185105321e+17,-4.034330666211031e+17
4.444520424,-1.9779608082971204e+20,-3.45217373243327e+17,-4.0147338373383526e+17
4.446520424,-1.9725259223043618e+20,-3.490176851457352e+17,-3.9951323122634854e+17
4.448519757,-1.967069052437809e+20,-3.527965134226811e+17,-3.9755265824715315e+17
4.450519757,-1.9615904426308534e+20,-3.565539171727391e+17,-3.955917137502966e+17
4.452519757,-1.9560903362635052e+20,-3.6028995536091904e+17,-3.936304464918861e+17
4.454519757,-1.9505689761473495e+20,-3.6400468679146086e+17,-3.916689050267873e+17
4.456519057,-1.9450266045106042e+20,-3.676981700806564e+17,-3.8970713770549606e+17
4.458519023,-1.9394634629833005e+20,-3.713704636297185e+17,-3.877451926711803e+17
4.460518989,-1.9338797925826036e+20,-3.750216255977175e+17,-3.857831178568904e+17
4.462518955,-1.928275833698281e+20,-3.78651713874602e+17,-3.838209609829381e+17
4.464518921,-1.9226518260783487e+20,-3.822607860543222e+17,-3.818587695544458e+17
4.466518887,-1.9170080088149223e+20,-3.858488994080691e+17,-3.7989659085906995e+17
4.468518853,-1.9113446203303133e+20,-3.89416110857643e+17,-3.7793447196490035e+17
4.470518819,-1.9056618983633925e+20,-3.929624769489654e+17,-3.759724597185331e+17
4.472518819,-1.899960079956244e+20,-3.9648805382575e+17,-3.740106007433139e+17
4.474518852,-1.894239401441113e+20,-3.999928972033495e+17,-3.720489414377503e+17
4.476518885,-1.8885000984276396e+20,-4.034770623427999e+17,-3.700875279740933e+17
4.478518918,-1.882742405790373e+20,-4.069406040250849e+17,-3.6812640629708544e+17
4.480518951,-1.8769665576565552e+20,-4.103835765256407e+17,-3.661656221228728e+17
4.482518984,-1.87117278739417e+20,-4.1380603358911795e+17,-3.642052209380818e+17
4.484519017,-1.8653613276002622e+20,-4.172080284044196e+17,-3.622452479990574e+17
4.48651905,-1.8595324100895284e+20,-4.20589613580032e+17,-3.6028574833126195e+17
4.48851905,-1.853686265883179e+20,-4.239508411196708e+17,-3.583267667288248e+17
