Time (s),X (m/s^2),Y (m/s^2),Z (m/s^2)
6.007088083,-0.016509998956253408,-0.18206633851325196,0.012816546338277534
6.017015083,0.13535520165624162,-0.2227889923991547,0.17702823569220127
6.026942083,0.2793051800641668,-0.26314011215525723,0.33254894996859247
6.036869083,0.4079107804122959,-0.30280972650041976,0.47148964197353826
6.046796083,0.5146364276711191,-0.3415021116857594,0.5871666019207301
6.056723083,0.5942488623889577,-0.37892794049780626,0.6745842310120885
6.066650083,0.6431619870379662,-0.41479372350499716,0.7307837289904835
6.076577083,0.6596862222101845,-0.4487933503492449,0.7550322961944482
6.086504083,0.6441528069465461,-0.48060773055153,0.7488386326123272
6.096431083,0.5988925755717185,-0.5099165334459306,0.715791416616689
6.106358083,0.528063235907126,-0.5364211237553013,0.6612290716075804
6.116286083,0.4373354512437025,-0.5598722924912062,0.5917622782806368
6.126213083,0.333462536220142,-0.580093302792375,0.5146852785949207
6.136140083,0.22376933903871607,-0.5969900339262658,0.4373265904620538
6.146067083,0.11560256473620378,-0.6105452123456581,0.36640113093259397
6.155994083,0.01578780148717716,-0.6208002656542413,0.3074299758442729
6.165921083,-0.06986177229259168,-0.6278331066798409,0.2642886767258649
6.175848083,-0.13694359510889545,-0.631741438612197,0.2389307769665802
6.185775083,-0.18273680623654076,-0.6326389943756404,0.23131245685521024
6.195702083,-0.2063237986909272,-0.6306673523406912,0.239520154191102
6.205629083,-0.20855503283036622,-0.6260201357390127,0.2600789267895765
6.215556083,-0.1918664527140772,-0.618971861837688,0.2883988165084954
6.225483083,-0.15997398685125208,-0.6099023184417907,0.31930245620108033
6.235410083,-0.1174811213834113,-0.5993087902911353,0.34757139418894223
6.245337083,-0.06944191434984305,-0.5878008894452745,0.3684518366253553
6.255264083,-0.020922347033058713,-0.5760750995803678,0.37807211423424736
6.265191083,0.023401846006669384,-0.5648689118516759,0.3737416185182616
6.275118083,0.059580895650562425,-0.5548981647100997,0.35412026576797434
6.285046083,0.08463984609148735,-0.5467854101408361,0.31926478261586727
6.294973083,0.09672977549495665,-0.5409907833209188,0.27057010466466247
6.304900083,0.09517974045045921,-0.537758748982234,0.2106287916441563
6.314827083,0.08045583782383424,-0.5370926718358284,0.14302840776243217
6.324754083,0.054040177498058936,-0.5387634909523604,0.07209923367770947
6.334681083,0.01824669456900677,-0.5423502284045245,0.00261782520171869
6.344608083,-0.024007633849516662,-0.5473020345269491,-0.060529249420021365
6.354535083,-0.06945796411691334,-0.5530072651942745,-0.11271103418564675
6.364462083,-0.11475635909537708,-0.5588559281454185,-0.1499256618323608
6.374389083,-0.1567308116174008,-0.5642864688382647,-0.16914898120224572
6.384316083,-0.19262382162496125,-0.5688136833328737,-0.16861912644928523
6.394243083,-0.2202954953290491,-0.5720392191639324,-0.1480192758201959
6.404170083,-0.23837570090808854,-0.5736486017507604,-0.10853108322521132
6.414096875,-0.24635087822806992,-0.5733993599939495,-0.05274805895531039
6.424023875,-0.24457503253272,-0.571104777650139,0.015543009198975319
6.433950875,-0.23420156368534822,-0.5666178358428425,0.09168818029241685
6.443877875,-0.21704176263492925,-0.5598197168005106,0.17056418224926714
6.453804875,-0.19536485516160657,-0.5506161062300268,0.24700583203996734
6.463732875,-0.1716613238463244,-0.5389424614866922,0.3162195263715892
6.473659875,-0.1483949040279685,-0.5247770521205755,0.37414256284250785
6.483586875,-0.12776907399694393,-0.5081584576729945,0.4177158959919287
6.493513875,-0.111531317396187,-0.489202619164898,0.4450495260236906
6.503440875,-0.10083340327062834,-0.4681139321036033,0.4554735398946638
6.513367875,-0.09615913214359266,-0.4451857083803637,0.44948201871816
6.523294875,-0.09732311917353689,-0.42078759115555786,0.4285896050287545
6.533221875,-0.10353581234290417,-0.39534061978760765,0.3951292464003825
6.543148875,-0.11352210297359011,-0.36928389895714747,0.35202226314436297
6.553075875,-0.12567525650109015,-0.3430392854261954,0.30254743255388006
6.563002875,-0.13822589813083666,-0.3169807869824236,0.2501259577487531
6.572929875,-0.14940751948686248,-0.29141270982444917,0.19812842034701653
6.582856875,-0.15760426496391716,-0.2665564599220277,0.14970285872018926
6.592783875,-0.161472082578225,-0.24254339977993603,0.10762186499043984
6.602710875,-0.1600293488977293,-0.21941212238281022,0.07414909425307423
6.612637875,-0.15271682653954202,-0.1971116269504379,0.05092825496726634
6.622564875,-0.13942880257640433,-0.17551384902879455,0.03889842122932746
6.632491875,-0.12051753955057067,-0.15443729218819777,0.03823875992212902
6.642419875,-0.09677235413128647,-0.13367855177568647,0.04834500993239321
6.652346875,-0.06937384080227658,-0.11304353080839134,0.06784042239697306
6.662273875,-0.039824025167713106,-0.09236874262098396,0.09462560596886291
6.672200875,-0.009854587760677986,-0.07152662766938717,0.1259738724189965
6.682127875,0.0186832415385894,-0.050415541220321075,0.15867885233596915
6.692054875,0.04394267825347732,-0.02894142050866802,0.18925668295012313
6.701981875,0.06421425144567637,-0.007000951099973374,0.21419579148999676
6.711908875,0.07806142889869844,0.015525643579335134,0.2302367469216888
6.721835875,0.08445100254494056,0.038768773676260006,0.23465738676476247
6.731762875,0.08286810155817802,0.06285208555235873,0.22553621367779358
6.741689875,0.07340422921934853,0.0878675854383928,0.20196830611327465
6.751616875,0.05680668387496456,0.11384729731555528,0.16421038766828014
6.761543875,0.03447947733445908,0.14073448949312642,0.11373463610073282
6.771470875,0.00842939989858028,0.16835769987163657,0.05317552502107375
6.781397875,-0.018844106873709902,0.19641234197705426,-0.013837768823163284
6.791324875,-0.044510810683926136,0.2244558775934333,-0.08295830247348986
6.801251875,-0.06561328868053645,0.25192153184579485,-0.14948681248371734
6.811178875,-0.07929794307668293,0.2781517626098771,-0.20878906638010536
6.821106875,-0.08305615474386416,0.30244749782340247,-0.2567170087696528
6.831033875,-0.07495614799069704,0.32412503760782696,-0.2899820219106792
6.840960875,-0.05384439599259043,0.342571289589052,-0.3064344666705541
6.850887875,-0.01949466886986827,0.357289513705262,-0.30521775755697356
6.860814875,0.027315467254214763,0.3679307832793955,-0.2867843884972844
6.870741875,0.08481552643226666,0.3743098181688674,-0.25278140234542207
6.880668875,0.15034606690925606,0.3764067095581086,-0.20582981094715785
6.890595875,0.22054999547973336,0.3743576164530024,-0.14923387110925912
6.900522875,0.29163402053783216,0.36843793518532286,-0.0866612027989074
6.910449875,0.35967380881383637,0.35904143999977467,-0.02183391705361037
6.920376875,0.4209306266582535,0.3466589212017174,0.04173518541498431
6.930303875,0.4721455369776211,0.331859790316285,0.10093797920834385
6.940230875,0.5107797788411589,0.315279255568334,0.1531885392568017
6.950157875,0.5351765535320245,0.2976111841594003,0.1964683851686211
6.960084875,0.544629345505293,0.2796029871258238,0.22931802295737633
6.970011875,0.5393541117433543,0.26204569339580275,0.25080140638671444
6.979938875,0.520376070251377,0.24575206535619637,0.2604706132442522
6.989865875,0.48935463292286585,0.23151900182104235,0.2583505043642472
6.999793875,0.4483791267230769,0.22007622545025257,0.24494911832154956
7.009720875,0.3997697556763886,0.21202852096699762,0.2212835163725465
7.019647875,0.34591137361291296,0.20780124040736211,0.18889858349907945
7.029574875,0.2891345730913152,0.20759811658987212,0.14985248624396225
7.039501875,0.23164439674613876,0.21137781726483565,0.10664800419643215
7.049428875,0.17548609957200806,0.21885231737565664,0.062100881527714084
7.059355875,0.12253197779569676,0.229506820447401,0.019150173318299168
7.069282875,0.07447338952351994,0.2426383117197104,-0.019372408804421502
7.079209875,0.03280623080844392,0.2574083269387265,-0.05098897657646767
7.089136875,-0.0011962048825783975,0.2729048972449428,-0.07380894640152019
7.099063875,-0.026524170252262634,0.2882081686135201,-0.08672117366134192
7.108990875,-0.04248404200409601,0.3024536973501375,-0.08952007706246877
7.118917875,-0.04875763003750199,0.3148874496344463,-0.08294729544853209
7.128844875,-0.04546019888484347,0.3249075132669844,-0.06863900044520936
7.138771875,-0.03318615136461546,0.33208923868725243,-0.048979782577480965
7.148698875,-0.013029949741406477,0.3361926250362029,-0.02687580419355002
7.158625875,0.013428824848905561,0.33715312785275675,-0.005470107287736718
7.168552875,0.04418362112903249,0.33505922897656226,0.012170887809799217
7.178479875,0.07690452744513816,0.33012106170160477,0.023368875828437344
7.188407875,0.10908423689769423,0.3226335236059959,0.02611280446382729
7.198334875,0.13821821818307373,0.312935657116258,0.019275890906639396
7.208261875,0.1620063113601569,0.30136792420248276,0.0027421922252956524
7.218188875,0.17855869934512242,0.2882316572691964,-0.022579697217558724
7.228115875,0.18658543144427941,0.2737588372113155,-0.05486499479967236
7.238042875,0.18554605518767425,0.2581017107545103,-0.09159305897494516
7.247969875,0.1757358928650259,0.24134790584513807,-0.12984980298948362
7.257896875,0.15828979776702765,0.22355865033229988,-0.16666751706508884
7.267823875,0.13509349998582892,0.20481971473883023,-0.1993504498787048
7.277750875,0.1086056571985571,0.18529084611786686,-0.2257357716880678
7.287677875,0.08160783685315717,0.1652406185588104,-0.2443494947714468
7.297604875,0.05691183517689486,0.14505778349141268,-0.2544361076042323
7.307531875,0.037061174035148664,0.12523505869809584,-0.25586710149563047
7.317458875,0.02406458453034597,0.1063262980599503,-0.24896076978220621
7.327385875,0.019193961980768216,0.08888370739393193,-0.2342647424581328
7.337312875,0.022869286215358407,0.07338750973729075,-0.21235749294095216
7.347239875,0.03464019409129406,0.06018362892374247,-0.18371551703842282
7.357166875,0.05325999812213213,0.04944350494269955,-0.14867379368013905
7.367093875,0.0768351564968609,0.041154663187307816,-0.10748402790262655
7.377021875,0.10302426689400804,0.035143549832502216,-0.060452373779739436
7.386948875,0.1292577824104692,0.031125492600137587,-0.008119727284181347
7.396875875,0.15295298006137978,0.028771115870401386,0.04856254077924495
7.406802875,0.17170608932671494,0.02777433668353979,0.10810711736666515
7.41673425,0.18345192113082556,0.027905616240960857,0.16844836093374685
7.42666125,0.18658848724551516,0.029037518070882073,0.2269963236477603
7.43658825,0.1800684476468504,0.031137646325601405,0.2807816306092278
7.44651525,0.16346005158125332,0.03423336525692783,0.32667225783788884
7.45644225,0.13697817341739787,0.038359618908128224,0.3616356952055895
7.46636925,0.1014829980919942,0.04350399098033813,0.3830165139295153
7.47629625,0.05844204244513581,0.0495618760752308,0.3887990030000076
7.48622325,0.009851950384251606,0.05631023407677001,0.37782716951240214
7.49615025,-0.04187984061623797,0.06340285236310288,0.3499593968000698
7.50607725,-0.09408783847212938,0.07038567925330591,0.3061412467319341
7.51600425,-0.1440241782413494,0.07672872387216531,0.24838661383578678
7.52593125,-0.1890419812087325,0.08187054675702263,0.17966494759966292
7.53585825,-0.22677052199938041,0.08527106937520203,0.10370100455089888
7.54578525,-0.25526861844478627,0.08646751276984298,0.02470321463674914
7.55571225,-0.2731461980942951,0.08512697346078252,-0.05295435835984628
7.56564025,-0.2796471144137581,0.0810883295897982,-0.12506552697136272
7.57556725,-0.2746883880778275,0.07438676631754096,-0.18790831123131851
7.58549425,-0.25885272810855936,0.0652565875113402,-0.23851349031917202
7.59542125,-0.23333360927482438,0.05411149983997672,-0.2748592491148851
7.60534825,-0.1998361908336512,0.0415048681203528,-0.2959720600879065
7.61527525,-0.16044250474389404,0.028074481275630055,-0.30192245348343116
7.62520225,-0.11745368938598258,0.014477020063970843,-0.29371587059182497
7.63512925,-0.07322371155298817,0.001317455582692474,-0.2730934602710254
7.64505625,-0.0299979087558308,-0.010920776086988633,-0.2422737755115005
7.65498325,0.010232809538877903,-0.021937006359661355,-0.20367969316285062
7.66491025,0.04585368578130782,-0.031655403467979154,-0.15969986547433374
7.67483725,0.07571660588913187,-0.0402358484172065,-0.11252619222959934
7.68476425,0.09919170647650162,-0.04804393562862789,-0.06408786027598672
7.69469125,0.1161712425065276,-0.05557790640255706,-0.01607362144580399
7.70461825,0.12701804046626974,-0.06336188952421369,0.029993173471167815
7.71454525,0.13245739982707785,-0.07182662951062359,0.07267711760342342
7.72447225,0.13342311691617428,-0.08120528619241002,0.11059711054396143
7.73439925,0.1308818440661585,-0.09146838585577968,0.1424609027338704
7.74432625,0.1256702921544728,-0.10230891021513559,0.1671617179619249
7.75425325,0.11838218702559446,-0.11317193060400813,0.18390492448038415
7.76418125,0.10933311295371138,-0.12331156470545139,0.1923220580086515
7.77410825,0.09861150763083483,-0.13185664935697416,0.19253736047289316
7.78403525,0.0861986846962067,-0.13787422037044791,0.1851726754710639
7.79396225,0.072119823290276,-0.1404302745865091,0.1712981961057484
7.80388925,0.05658063577235092,-0.13865343032454985,0.15234788901276083
7.81381625,0.040053714248035936,-0.13180588207647195,0.13001568679391576
7.82374325,0.023298770833882383,-0.11935926481522147,0.10613777855017796
7.83367025,0.007321587913417914,-0.10106552628076036,0.08255825737131454
7.84359725,-0.006711320820588532,-0.07700937074194755,0.06097677282405752
7.85352425,-0.017583669958213078,-0.047631149067758595,0.04278575828219651
7.86345125,-0.02415210470117714,-0.013715381080767211,0.028914056578992715
7.87337825,-0.025472260694997383,0.0236533261187693,0.019698351803034392
7.88330525,-0.020922113809142516,0.06316091934183726,0.014804111219257452
7.89323225,-0.010314567740951753,0.1033531410652526,0.013216041589697422
7.90315925,0.006013819304413725,0.14273481018555362,0.013314380488834925
7.91308625,0.02715615311438382,0.179870686974145,0.013045550115537062
7.92301325,0.05164999554542715,0.21348000773812076,0.010182232075858992
7.93294025,0.07756744369010861,0.24251746470584354,0.002649521648349492
7.94286725,0.10268180994348995,0.2662344341164169,-0.011125948343344386
7.95279425,0.12469632139083281,0.28421607900108103,-0.031902034690975495
7.96272125,0.1415058852262963,0.29639245845107637,-0.05940375833895943
7.97264925,0.15145397631248772,0.30302441231203847,-0.09225156576128486
7.98257625,0.15354505087294304,0.3046671996987449,-0.12805689692685593
7.99250325,0.1475787923915281,0.3021158663908204,-0.1636723826817951
8.00243025,0.13418464810411146,0.2963356650636498,-0.19555356429381418
8.01235725,0.11475111677027923,0.28837968955089593,-0.22017231084746933
8.02228425,0.09126113588907453,0.27929628874289913,-0.23442246101349318
8.03221125,0.06605952540542749,0.270031608752676,-0.2359710218947602
8.04213825,0.04158781173953304,0.26133648254974995,-0.22352433913762174
8.05206525,0.02012388682128413,0.25368976805169846,-0.19699046140740134
8.06199225,0.0035588488122015884,0.24725073664677574,-0.1575249210946662
8.07191925,-0.0067667033116910105,0.24185063473195695,-0.10745145841389153
8.08184625,-0.010156358607612317,0.23702783459210755,-0.050057625859547254
8.09177325,-0.006581584438422352,0.2321027135782856,0.010719397124830238
8.10170025,0.003356823292037966,0.22627992806109307,0.07068187292663525
8.11162725,0.01851779813653297,0.21876024419752974,0.125784253893956
8.12155425,0.03734749173715113,0.208843530381737,0.17251273726454897
8.13148125,0.05803462326538982,0.19600899894501092,0.2081822278869341
8.14140825,0.07868365151292714,0.1799667160895991,0.23111887284863347
8.15133525,0.09749339330801046,0.16068260165402495,0.2407179083871366
8.16126225,0.1129244166687105,0.13838412801116623,0.2373858493376465
8.17118925,0.12383580052574547,0.11355423353951187,0.2223887040914611
8.18111725,0.12957408997045583,0.0869177699528613,0.19763316470668182
8.19104425,0.13000480886200663,0.059420441237169434,0.16540860493481457
8.20097125,0.1254866665179171,0.032196770198230994,0.12811873421381118
8.21089825,0.11679682880123635,0.006522395565220128,0.08803509681589045
8.22082525,0.10502050809622224,-0.016252977362724543,0.047107323351224986
8.23075225,0.09142023619852618,-0.03479308129490991,0.006860284252100589
8.24067925,0.07730108076106501,-0.04788051824537969,-0.03160903954937571
8.25060625,0.06388861269938981,-0.05453289368171737,-0.0675494453460243
8.26053325,0.05223560688560997,-0.05411704252198998,-0.1004288055274965
8.27046025,0.04316887436810508,-0.04644421721068216,-0.12981519183355744
8.28038725,0.03727831669283887,-0.03182802306418189,-0.15530917897411692
8.29031425,0.03493889214607925,-0.011091193863785254,-0.17654576256120888
8.30024125,0.03634749735648515,0.014483604884851167,-0.19325611318269387
8.31016825,0.041554507620960524,0.043253137803673083,-0.20535948619668892
8.32009525,0.05047467567448868,0.0733489156695269,-0.21304905697454024
8.33002225,0.06287222903978974,0.10283020931316635,-0.21684088842080043
8.33994925,0.07832661679942689,0.12983706752315977,-0.21756783206320973
8.34987625,0.09619457512649209,0.152729619573963,-0.216314386881364
8.35980325,0.11558808223922823,0.17020485554277,-0.2143002463258695
8.36973025,0.13538494388603117,0.18138519023492297,-0.21272779047618667
8.37965725,0.1542800842435399,0.18587358308449053,-0.2126125511488687
8.38958425,0.1708746800717236,0.18376962104033634,-0.2146169072243833
8.39951125,0.18379170281339802,0.1756423173115715,-0.21890694382247528
8.40943925,0.19180306403925784,0.16245939343695676,-0.22505109779568006
8.419366083,0.1939548690062271,0.14547841952091017,-0.2319773318512702
8.429293083,0.18968022260610337,0.12611054328224913,-0.23800331920435133
8.439220083,0.17889038815780356,0.10577161931611409,-0.24095072526227282
8.449147083,0.16203381565222935,0.08573831925827853,-0.2383482425071026
8.459074083,0.14011038411524648,0.06702781953056712,-0.22771690378002843
8.469001083,0.1146282051303923,0.050317587882664,-0.20691576759176097
8.478928083,0.08749474800148659,0.03591587213152992,-0.17450920928640493
8.488855083,0.06084315964310809,0.02378475827200982,-0.13010317129677224
8.498782083,0.03680683473565458,0.013608318850202767,-0.0745915356173288
8.508709083,0.01726758508474074,0.004890590784324374,-0.010258902674110098
8.518636083,0.0036117622105329397,-0.0029365969440192635,0.059296464383762806
8.528563083,-0.0034682461891284515,-0.010416719853780065,0.12942833563029335
8.538490083,-0.004093509344862545,-0.017999808777681404,0.1948737459010586
8.548417083,0.0007847310475212019,-0.026011487184085847,0.2502972620512188
8.558344083,0.009480530528714221,-0.03465924190119975,0.29087523243815766
8.568271083,0.019773482405261854,-0.04406532621467355,0.31283933499427086
8.578198083,0.02918963473193584,-0.054309190928174426,0.3139052406098001
8.588125083,0.03532533978926305,-0.06546196991218771,0.29353094247086753
8.598052083,0.03616816330274558,-0.07760108581014682,0.2529756399811538
8.607979083,0.03036815279035442,-0.09080116064209895,0.19515834089498932
8.617906083,0.017419997841409674,-0.10510437180699642,0.12434103460381413
8.627834083,-0.002269173754750973,-0.12047783378346646,0.04568192900844338
8.637761083,-0.027433541093630644,-0.1367681614118819,-0.035281113174428426
8.647688083,-0.056112817845673665,-0.15366471384839336,-0.11314876501954958
8.657615083,-0.08590032782052034,-0.17068325729412842,-0.1831121222681885
8.667542083,-0.114237375213444,-0.18718078574077146,-0.24128180189054002
8.677469083,-0.13871182223060824,-0.20240893222533451,-0.2848617741741237
8.687396083,-0.15732137404972332,-0.21560614378663143,-0.3121681240065325
8.697323083,-0.1686704231583914,-0.22611789947936398,-0.3225253837192271
8.707250083,-0.17208070181751664,-0.23352333165402736,-0.3160959608569913
8.717177083,-0.16760855092253144,-0.23774032304044065,-0.2937057083327429
8.727104083,-0.15597498522737635,-0.23908211054577036,-0.25671925694528996
8.737031083,-0.13842823376897267,-0.23824640353861196,-0.2069945290797844
