Time (s),Acceleration x (m/s^2),Acceleration y (m/s^2),Acceleration z (m/s^2)
9.000551209,-0.5062208925800254,0.5853038479476246,1.368675380274744
9.005306157,-1.0907395216118467,0.7654980793097892,0.9642255973740675
9.010061105,-1.6747209117011321,0.9447614457603936,0.5587645954556786
9.014816053,-2.2568276032303105,1.12278632172711,0.15448197469532227
9.019571001,-2.835733527800915,1.299265121570891,-0.24645749774547984
9.024325948,-3.4101284181850606,1.4738907747604175,-0.6419314498444263
9.029080896,-3.9787221745916708,1.6463572634465367,-1.0298768605253983
9.033835844,-4.540249190604118,1.8163602262255205,-1.408306221897724
9.038590792,-5.093472639466023,1.9835976307074745,-1.7753227339995492
9.04334574,-5.637188717639255,2.1477705164199294,-2.1291343738843587
9.048100636,-6.170230837678993,2.3085838085644745,-2.4680666987401194
9.052855584,-6.69147375653968,2.4657472021664524,-2.7905742622786973
9.057610532,-7.199837618716253,2.6189761152108244,-3.095250544461216
9.06236548,-7.694291886673009,2.7679927084956715,-3.3808363162955737
9.067120428,-8.173859124577504,2.912526969214007,-3.6462263835421127
9.071875376,-8.637618596219685,3.052317854650027,-3.8904746753748523
9.076630323,-9.084709634715383,3.187114491644883,-4.112797666209598
9.081385271,-9.514334740420038,3.3166774263392353,-4.312576141013811
9.086140219,-9.92576236443741,3.440779916851338,-4.489355336468275
9.090895167,-10.318329338063482,3.559209258879701,-4.6428435121991
9.095650115,-10.691442913152102,3.6717681308395456,-4.772909027453582
9.100405063,-11.044582384274657,3.7782759413580282,-4.879576018251563
9.105160011,-11.377300270178234,3.8785701581468484,-4.963018787290807
9.109914959,-11.689223038967802,3.9725075937814647,-5.023555032952044
9.114669907,-11.980051368239323,4.05996562098757,-5.061638054174706
9.119424855,-12.249559937758583,4.140843287838419,-5.077848074648724
9.124179803,-12.497596758073268,4.215062301948115,-5.072882832898694
9.128934751,-12.724082043696901,4.282567852452059,-5.04754758483423
9.133689698,-12.929006644346169,4.343329239425936,-5.00274466266351
9.138444646,-13.112430052313503,4.397340282493291,-4.9394627291182145
9.143199542,-13.274478008561536,4.444619483723862,-4.858765859056582
9.14795449,-13.415339734583153,4.485209924457376,-4.761782572038093
9.152709438,-13.535264821368083,4.519178881244467,-4.649694929795328
9.157464386,-13.634559810714853,4.546617152474145,-4.523727802097554
9.162219334,-13.713584507370605,4.567638094250082,-4.385138393680515
9.166974282,-13.772748062890466,4.582376371497473,-4.235206113938986
9.17172923,-13.812504873604578,4.5909864379343,-4.075222860035524
9.176484178,-13.833350335703724,4.593640766182721,-3.9064837730221953
9.181239126,-13.835816500373323,4.59052785662231,-3.7302785156217375
9.185994073,-13.820467671360213,4.581850060272672,-3.547883109696395
9.190749021,-13.787895986529918,4.567821256761459,-3.3605523614191246
9.195503969,-13.73871702391136,4.548664433086843,-3.169512892974128
9.200258917,-13.673565471386516,4.524609212284009,-2.9759567913637657
9.205013865,-13.593090897516232,4.4958893831410975,-2.781035877598293
9.209768813,-13.497953658994764,4.46274048267978,-2.5858565931476103
9.214523761,-13.388820977918158,4.42539748213546,-2.3914754949838506
9.219278657,-13.266363219448802,4.384092624590715,-2.198895345809268
9.224033605,-13.131250397529483,4.339053458230999,-2.0090617821495376
9.228788553,-12.984148932970617,4.290501103485455,-1.822860539914546
9.233543501,-12.82571868443381,4.238648785292245,-1.6411152147804247
9.238298448,-12.656610268564425,4.183700653723641,-1.4645855332712203
9.243053396,-12.477462680888538,4.125850907650482,-1.2939661096031547
9.247808344,-12.288901224266773,4.065283227469801,-1.1298856630438079
9.252563292,-12.091535746892085,4.002170514570765,-0.972906670560481
9.25731824,-11.885959187204074,3.936674927495541,-0.8235254297185983
9.262073188,-11.672746418793787,3.868948197893739,-0.6821725069965405
9.266828136,-11.452453384464715,3.7991322035195734,-0.5492135467989789
9.271583084,-11.225616505123698,3.727359770757902,-0.42495041640227704
9.276338032,-10.99275234610618,3.6537556755041662,-0.3096226617866149
9.28109298,-10.754357520938614,3.5784378086232,-0.2034092487450531
9.285847928,-10.510908810496119,3.501518470586437,-0.10643056284339963
9.290602823,-10.262863474077779,3.423105759124165,-0.018750640921701853
9.295357771,-10.010659728050795,3.3433050137202565,0.05962039386002129
9.300112719,-9.75471736731309,3.2622202814390038,0.12872372173604074
9.304867667,-9.495438504823314,3.179955769851649,0.1886490689867277
9.309622615,-9.233208404811272,3.0966172546724473,0.2395318311697841
9.314377563,-8.968396385966804,3.0123134120492217,0.2815501036661524
9.319132511,-8.701356771848697,2.9271570481903653,0.314921645045885
9.323887459,-8.432429866900973,2.841266202061873,0.3399007972829796
9.328642407,-8.161942937780735,2.7547651001907947,0.35677538522702656
9.333397355,-7.89021118117397,2.6677849461234238,0.3658636160686146
9.338152303,-7.617538660888088,2.5804645307726326,0.36751099787785324
9.342907251,-7.344219198748203,2.492950653706848,0.36208729467555745
9.347662198,-7.070537205677205,2.4053983493177,0.34998353390672976
9.352417146,-6.796768441289198,2.3179709156499118,0.3316090806011123
9.357172042,-6.523180692327855,2.2308397473433517,0.30738879090563
9.36192699,-6.250034362262876,2.14418397746881,0.2777602560526673
9.366681938,-5.977582966241592,2.0581899359033446,0.24317114618176028
9.371436886,-5.706073527331386,1.9730504341966988,0.20407666174405054
9.376191834,-5.435746871581404,1.8889638885780096,0.16093709847029833
9.380946782,-5.16683782091606,1.8061332938305958,0.1142155300753011
9.38570173,-4.899575284299766,1.7247650612520433,0.06437561103322235
9.390456678,-4.634182249028128,1.6450677338921453,0.011879499937026866
9.395211626,-4.370875675435987,1.5672505918362776,-0.04281409779774205
9.399966573,-4.109866299782359,1.491522159619335,-0.09925177075920621
9.404721521,-3.85135835157355,1.418088627078763,-0.1569871302344655
9.409476469,-3.5955491930912724,1.3471521942539582,-0.21558243235771649
9.414231417,-3.34262889034929,1.2789093504652844,-0.27461010028545557
9.418986313,-3.0927797260438408,1.21354909757135,-0.3336541537034887
9.423741261,-2.846175666228624,1.1512511276707995,-0.39231155345552965
9.428496209,-2.602981793389634,1.0921839661985602,-0.45019346933283216
9.433251157,-2.3633537192921628,1.0365030924387424,-0.5069264790654199
9.438006105,-2.1274369914118796,0.9843490508807216,-0.5621537062805851
9.442761053,-1.895366506948978,0.9358455685063123,-0.6155359046269924
9.447516001,-1.667265948378829,0.8910976949214137,-0.6667524944120355
9.452270948,-1.4432472542475172,0.8501899841210439,-0.7155025569941221
9.457025896,-1.223410138514887,0.813184738473601,-0.7615057908433279
9.461780844,-1.0078416712158504,0.780120337101184,-0.804503431665449
9.466535792,-0.7966159325795478,0.7510096721053121,-0.8442591373099815
9.47129074,-0.5897937520338505,0.7258387169478875,-0.880559836391472
9.476045688,-0.3874225427326611,0.7045652516690919,-0.9132165376891788
9.480800584,-0.18953624136051084,0.6871177694432207,-0.9420650954947026
9.485555532,0.0038446380278092554,0.6733945881867773,-0.9669669241920837
9.49031048,0.19271282850027607,0.6632631894999761,-0.9878096535187261
9.495065428,0.37707400670737606,0.6565598051235244,-1.0045077141962848
9.499820376,0.556946356367706,0.653089268337087,-1.0170028419390775
9.504575323,0.7323599954462804,0.6526251443576602,-1.0252644862171594
9.509330271,0.9033562655098827,0.6549101498902523,-1.029290108549373
9.514085219,1.0699868837926412,0.6596568676419368,-1.0291053535513985
9.518840167,1.2323129607812655,0.6665487569616669,-1.02476407455253
9.523595115,1.3904038885933845,0.6752414569670925,-1.016348194462142
9.528350063,1.544336108017991,0.6853643737405897,-1.0039673818706158
9.533104959,1.6941917647677995,0.6965225385960692,-0.9877585222446564
9.537859907,1.8400572682236656,0.7082987201947348,-0.9678849646039485
9.542614855,1.9820217686836472,0.7202557695576471,-0.9445355252702651
9.547369803,2.1201755717814263,0.7319391739081823,-0.9179232321648924
9.552124751,2.2546085111791077,0.7428797928974401,-0.8882837957539607
9.556879698,2.385408302676188,0.7525967492318456,-0.8558737963731544
9.561634646,2.5126589042499985,0.7606004451191304,-0.8209685829538775
9.566389594,2.6364389069559784,0.7663956763057823,-0.783859885999233
9.571144542,2.756819980864599,0.7694848167417634,-0.7448531583594995
9.57589949,2.8738653983795612,0.7693710489299983,-0.7042646698975639
9.580654438,2.9876286548039093,0.7655616175825474,-0.6624183942916381
9.585409334,3.09815220347633,0.7575710870745785,-0.6196427358993993
9.590164282,3.2054663205930556,0.7449245861521852,-0.5762671509674654
9.59491923,3.309588113034145,0.7271610262602141,-0.5326187208874216
9.599674178,3.410520680952623,0.703836282616119,-0.48901873648793065
9.604429126,3.5082524453221664,0.6745263296982816,-0.4457793521736652
9.609184073,3.6027566488964937,0.6388303250770946,-0.4032003674386661
9.613939021,3.6939910370328315,0.596373637421699,-0.3615661910359471
9.618693969,3.7818977225811485,0.5468108159915778,-0.32114303990629633
9.623448917,3.866403236616321,0.4898284999073933,-0.28217642084991446
9.628203813,3.9474187643193073,0.4251482659375584,-0.24488893786293373
9.632958761,4.024840562956889,0.3525294133885581,-0.20947846208799897
9.637713709,4.098550556836239,0.27177168390632134,-0.17611669452631953
9.642468657,4.168417102458162,0.18271791256091943,-0.1449481441669525
9.647223605,4.234295915926537,0.08525660451160644,-0.11608953619347524
9.651978553,4.296031153959813,-0.02067557110666304,-0.08962965663777314
9.656733501,4.353456639471344,-0.13509138156218675,-0.06562963146809617
9.661488448,4.406397222456048,-0.2579507401026317,-0.04412362980208939
9.666243396,4.454670266640516,-0.3891585432329306,-0.02511997288090226
9.670998344,4.49808725185315,-0.5285626577108746,-0.008602622768641929
9.67575324,4.536455481254447,-0.6759520825686484,0.005466982424176877
9.680508188,4.5695798814214985,-0.8310553144309862,0.017147786558955082
9.685263136,4.597264881852935,-0.9935389469627299,0.026516712398419014
9.690018084,4.619316358835864,-1.163006537400372,0.03366604832970797
9.694773032,4.6355436269050045,-1.3389977747867683,0.03870068027313136
9.69952798,4.645761459450581,-1.5209879857335051,0.0417352279604337
9.704282928,4.649792118517667,-1.708388014283246,0.0428911478192937
9.709037876,4.647467372587512,-1.900544512727132,0.04229386698924425
9.713792823,4.638630480208131,-2.096740680020104,0.040070014494505916
9.718547771,4.6231381167748795,-2.296197483674072,0.036344816233614526
9.723302667,4.600862221574296,-2.4980753996289367,0.031239719753059524
9.728057615,4.571691742513604,-2.701476702558312,0.024870311240787642
9.732812563,4.535534257057775,-2.905448336339109,0.017344578186156465
9.737567511,4.492317450118836,-3.108985390931308,0.008761554920654094
9.742322459,4.441990432974153,-3.3110352074521816,-0.0007896333693412741
9.747077407,4.3845248911242045,-3.510502127437503,-0.011230334178362751
9.751832355,4.319916052432838,-3.706252894887735,-0.022492561247230036
9.756587303,4.248183469350672,-3.897122710687321,-0.034518850352525526
9.761342198,4.169371610560921,-4.08192192859268,-0.04726181396014407
9.766097146,4.0835502584499865,-4.259443370541837,-0.06068343270965739
9.770852094,3.9908147098429976,-4.428470226874916,-0.07475412134021683
9.775607042,3.8912857787536135,-4.587784494486557,-0.08945160535275243
9.78036199,3.7851096016427404,-4.736175893287991,-0.10475964279977171
9.785116938,3.6724572479390396,-4.872451188992108,-0.12066662334008643
9.789871886,3.5535241413469874,-4.99544383852173,-0.13716407429050173
9.794626834,3.4285293006774546,-5.104023863655061,-0.1542451010645072
9.799381782,3.2977144124173248,-5.197107849222859,-0.1719027873480727
9.804136678,3.1613427507762255,-5.273668954589672,-0.19012857884675113
9.808891626,3.019697964266093,-5.332746821572673,-0.2089106735843435
9.813646573,2.8730827508071566,-5.373457258594662,-0.2282324415373342
9.818401521,2.7218174458556397,-5.395001579855049,-0.24807089668757512
9.823156469,2.5662385501596425,-5.396675479655788,-0.2683952450868416
9.827911417,2.4066972255447245,-5.377877325686273,-0.2891655329408659
9.832666365,2.243557788635261,-5.338115760964838,-0.31033141878529613
9.837421313,2.077196233569879,-5.277016512151968,-0.331831093380697
9.842176209,1.9079988154371301,-5.194328311959623,-0.3535903699080138
9.846931157,1.7363607261930931,-5.089927855185003,-0.37552196535501
9.851686105,1.5626848941043006,-4.963823721203901,-0.3975249916494689
9.856441053,1.3873809361868543,-4.816159210187088,-0.4194846721723381
9.861196001,1.2108642905759825,-4.647214055421178,-0.4412722958687438
9.865950948,1.0335555521409576,-4.457404989490722,-0.46274541736803065
9.870705896,0.8558800298780089,-4.247285157311805,-0.48374830740440644
9.875460844,0.6782675386842414,-4.017542383748982,-0.5041126534340683
9.88021574,0.5011524311736465,-3.7689963175040546,-0.5236585056540918
9.884970688,0.3249738674876189,-3.502594485906744,-0.5421954585836115
9.889725636,0.15017631291028213,-3.2194073069925535,-0.5595240529499563
9.894480584,-0.022789755101088632,-2.920622115686572,-0.5754373770231118
9.899235532,-0.19346695677976333,-2.6075362698814133,-0.5897228413673771
9.90399048,-0.36138997051890676,-2.2815494095316553,-0.6021640972673952
9.908745428,-0.526084384390753,-1.9441549474335664,-0.6125430678927035
9.913500323,-0.6870654850732467,-1.5969308740978667,-0.620642062951883
9.918255323,-0.8438370354406504,-1.2415299612496988,-0.6262459514060602
9.923010219,-0.9958900957538626,-0.8796694493680601,-0.629144371239661
9.927765167,-1.1427019457103,-0.5131203046988259,-0.6291339588490352
9.932520115,-1.2837351655698377,-0.14369613065045958,-0.6260205825048657
9.937275063,-1.4184369342745633,0.22675818238389375,-0.6196215645322912
9.942030011,-1.5462386011109326,0.596377985813946,-0.6097678757963729
9.946784959,-1.6665555851912122,0.9632904985218771,-0.5963062844357214
9.951539907,-1.7787876539314467,1.3256264490844842,-0.5791014391712728
9.956294803,-1.8823196277522245,1.6815316558244062,-0.558037866378479
9.961049751,-1.9765225533674995,2.029178467839953,-0.533021859689558
9.965804698,-2.0607553822338334,2.3667769923572353,-0.503983241240401
9.970559646,-2.134367184056372,2.6925860363093186,-0.47087697470493145
9.975314594,-2.1966999177943802,3.0049236930051073,-0.4336846117961397
9.980069542,-2.247091774504025,3.3021775081107143,-0.39241555577135195
9.98482449,-2.2848810977176024,3.582814162913504,-0.3471081275207341
9.989579438,-2.309410877994303,3.8453886169580347,-0.297830421978585
9.994334334,-2.320033808892012,4.088552656623264,-0.24468094486135594
9.999089282,-2.3161178820001713,4.311062801032327,-0.18778902208116116
10.00384423,-2.297052488926489,4.5117875218081895,-0.12731497654157886
10.00859918,-2.2622549883289276,4.68971373854814,-0.06345006928801107
10.01335413,-2.2111776863264048,4.843952557414162,0.0035837959631307916
10.01810907,-2.143315169023019,4.973744225849986,0.07353460416480048
10.02286397,-2.05821191656836,5.078462282069883,0.14612099406869491
10.02761892,-1.9554701192810855,5.15761688355729,0.22103325414805186
10.03237386,-1.834757608018045,5.210857304305832,0.2979345457753735
10.03712881,-1.6958158033217292,5.23797359587105,0.3764623498639674
10.04188376,-1.5384675810954007,5.23889741240281,0.4562301331155015
10.04663871,-1.362624946842487,5.213702004592936,0.5368292300222429
10.05139366,-1.1682964060950551,5.162601391785045,0.6178309367480566
10.05614855,-0.9555939157799033,5.08594872527533,0.6987888128769817
10.0609035,-0.7247393001437746,4.984233859087161,0.7792411867200709
10.06565845,-0.4760700156504158,4.858080147316811,0.8587138593709754
10.0704134,-0.21004415206787183,4.7082404896593415,0.9367230019530245
10.07516834,0.07275543821623981,4.535592649073361,1.012778239447611
10.07992329,0.3716179838789413,4.341133867846414,1.0863859130838769
10.08467824,0.685702704087279,4.125974810664755,1.157052511487057
10.08943314,1.0140378663561564,3.89133286573822,1.2242882586612038
10.09418808,1.3555210640914297,3.638524837637785,1.287610844493187
10.09894303,1.7089207724024411,3.368959068317083,1.3465492808958395
10.10369798,2.0728792270143965,3.0841270258473137,1.4006478640434898
10.10845293,2.4459166564131682,2.785594403722655,1.449470220464826
10.11320788,2.8264368818538532,2.4749917771984538,1.4926034120938492
10.11796282,3.2127342836950628,2.15400486698897,1.5296620727443888
10.12271772,3.6030021158046304,1.824364464715958,1.560292545806124
10.12747267,3.995342132621081,1.4878360786487572,1.5841769901049139
10.13222762,4.387775475941736,1.1462093623314968,1.6010374175455269
10.13698256,4.778254750765396,0.8012873924150496,1.6106396219660735
10.14173751,5.1646772017566684,0.45487586514169154,1.612796953217954
10.14649246,5.544898884456984,0.1087722832754806,1.6073738837654472
10.15124741,5.916749708670036,-0.235244793205782,1.5942893074534237
10.1560023,6.2780492159106425,-0.5754263585020074,1.573519502283174
10.16075725,6.626622938732687,-0.9100633599215898,1.545100681995715
10.1655122,6.96031917731748,-1.237496809652729,1.5091310559584394
10.17026715,7.27702601798314,-1.5561275346297916,1.465772314314273
10.17502209,7.5746884093111335,-1.8644254898074504,1.415250456667819
10.17977704,7.851325104511574,-2.1609385604830016,1.357855888680178
10.18453194,8.105045273862792,-2.444300780265931,1.2939427222541124
10.18928689,8.334064589300265,-2.7132398933748267,1.2239272312487566
10.19404183,8.536720585352246,-2.966584193594597,1.1482854350001108
10.19879678,8.711487107156197,-3.2032685777127985,1.067549805086774
10.20355173,8.856987667139999,-3.42233975863616,0.9823051152721736
10.20830668,8.9720075464851,-3.622960592598342,0.8931834787596244
10.21306163,9.05550449493241,-3.8044134857127987,0.8008586393344644
10.21781657,9.106617902227903,-3.9661028572359367,0.7060396025668072
10.22257147,9.124676336081906,-4.1075566497736915,0.609463709410287
10.22732642,9.10920336448821,-4.228426889730612,0.5118892669711665
10.23208136,9.059921604074372,-4.328489314042875,0.414087859797828
10.23683631,8.976754960247574,-4.407642091189778,0.3168364697244197
10.24159126,8.859829048755929,-4.465903675223222,0.2209095332246892
10.24634621,8.709469811549171,-4.503409840724677,0.12707106269691013
10.2511011,8.526200362279065,-4.520409953915656,0.03606695255310309
10.25585605,8.310736118309556,-4.5172625404826405,-0.05138241702152537
10.260611,8.06397829666349,-4.4944302141117225,-0.1345891756076445
10.26536595,7.787005870896044,-4.452474031550745,-0.21290446537574984
10.2701209,7.481066104330999,-4.392047340617333,-0.28572437083287044
10.27487584,7.147563792057618,-4.313889187287191,-0.3524952070528691
10.27963079,6.788049358985262,-4.218817347061348,-0.41271811000156655
10.28438569,6.404205973496799,-4.1077210444450944,-0.46595288481098746
10.28914064,5.997835845324862,-3.981553422877604,-0.511821080566045
10.29389558,5.570845881695577,-3.84132382617183,-0.5500082737848332
10.29865053,5.125232877068801,-3.688089951706423,-0.5802655576739775
10.30340548,4.6630684088519985,-3.522949935297663,-0.602410250285467
10.30816043,4.186483604866395,-3.347034427687602,-0.6163258509817422
10.31291538,3.697653939210404,-3.161498722587854,-0.6219612897262327
10.31767027,3.1987842026199877,-2.9675149958774316,-0.6193295263399576
10.32242522,2.6920937822461113,-2.766264714612194,-0.6085055661647569
10.32718017,2.1798023743274366,-2.5589312728039344,-0.5896239642736512
10.33193512,1.664116241573194,-2.3466929083718036,-0.562875892693463
10.33669006,1.1472151150371337,-2.1307159521989436,-0.5285058446372731
10.34144496,0.631239827707977,-1.9121484558283566,-0.486808047188729
10.34619991,0.11828075395037363,-1.6921142390409427,-0.43812264984586985
10.35095486,-0.38963288456272416,-1.4717073924529842,-0.38283175125426044
10.3557098,-0.8905427994454648,-1.251987263455254,-0.321355320641472
