Time (s),Acceleration x (m/s^2),Acceleration y (m/s^2),Acceleration z (m/s^2)
6.003397213,-0.027116338648022247,-0.08834794846908779,0.1335336514432823
6.008397213,0.009564272507812398,-0.12527915416873245,0.05244691933089499
6.013396346,0.04473432273442485,-0.15911981831783809,-0.0214934214229835
6.018396346,0.07722415747017342,-0.18766380160285015,-0.0821677070262541
6.023396346,0.10596385527825823,-0.20927372395335503,-0.12517136338161797
6.028396312,0.13002846399871323,-0.22304870592352055,-0.14833412932463239
6.033396278,0.1487046293435287,-0.2289070832146058,-0.15197671676497987
6.038396244,0.16157096309666955,-0.2275754912992712,-0.13886822515516667
6.04339611,0.1685767274515622,-0.22048860810862675,-0.1138806125814626
6.048396143,0.17009861387429548,-0.2096154400691953,-0.08337172075386451
6.053396176,0.16695435634157804,-0.1972357802869101,-0.05436122218624737
6.058396209,0.16035528437020247,-0.18569306713706674,-0.03359036090102604
6.063396209,0.15178819600702384,-0.17714799723684851,-0.026573858801637925
6.068396209,0.14282990957888603,-0.17335300157219574,-0.036759564325996266
6.073396175,0.13491390151568683,-0.17546329408589173,-0.06490754749687884
6.078396141,0.12908424536693303,-0.18389710324050354,-0.10878449089486036
6.083396141,0.12578315743147772,-0.1982563137824586,-0.16324048635798832
6.088396174,0.12472045326897602,-0.21731832010751292,-0.22069378749069718
6.093396874,0.12486363886456384,-0.23910870326344974,-0.27199717285252734
6.098397774,0.12456704880836349,-0.26106035464477456,-0.30760317137071863
6.103398674,0.12183164924478425,-0.28025632387761346,-0.3188930914326579
6.10839954,0.11466005217568462,-0.2937409178839802,-0.2994960435559845
6.113399773,0.10145008626462017,-0.2988687751926663,-0.2464071036011972
6.118400639,0.08135940008690057,-0.2936490436631061,-0.16072372574205546
6.123400639,0.0545750855595801,-0.2770356432876768,-0.04785815954229939
6.128400672,0.02243594543702043,-0.2491174105141522,0.08285138447369639
6.133400038,-0.012621454826404052,-0.2111738809008771,0.2191234879521596
6.138400071,-0.04729255040750897,-0.16558151361681037,0.34721004162396774
6.143400071,-0.07778057821101335,-0.11557759018280198,0.4536804417238623
6.148400737,-0.10026496616207589,-0.06491059693647319,0.5272646054326046
6.153400703,-0.11139523116726917,-0.017422880129861266,0.560479997570549
6.158400703,-0.10874148079783504,0.023378864714367262,0.5507864779474594
6.163401603,-0.09114166853239598,0.05470817708246281,0.5010755126649558
6.168401636,-0.05890280655156458,0.07478777853314131,0.41939783070491565
6.173401636,-0.01383471411426523,0.08300555205724476,0.31794952363683543
6.178401636,0.04088297151354999,0.07991925054378114,0.21145134386017764
6.183401636,0.10097996400393003,0.06711386868181242,0.11515098896309939
6.188401636,0.16148521908787272,0.04693741221055459,0.04273834448336901
6.193401769,0.21718389762985943,0.022158139630337557,0.00447900883944203
6.198401735,0.2630964372757468,-0.004403967300425708,0.005839025700458594
6.203401701,0.29493840390735604,-0.030218073825081487,0.04679876888828823
6.208401701,0.3095250092863124,-0.0533098531568758,0.12194850232301568
6.213401734,0.3050880810906662,-0.07242335552322705,0.221339019928935
6.218401767,0.28147541406155,-0.08706330025583273,0.3319469070608815
6.223401767,0.24020534041043948,-0.09742298597208839,0.43952400081490084
6.228401767,0.18435699434626593,-0.10422041026531485,0.5305498618101262
6.233401733,0.1182918413339734,-0.10847759385233474,0.5940029730593783
6.238401733,0.04722399878501598,-0.11128357946970423,0.6227098567087952
6.243401733,-0.02331849258177601,-0.11357963329433471,0.6141106402123071
6.248401766,-0.08807811027140759,-0.1159966894542806,0.5703775502869728
6.253401766,-0.14262258076247972,-0.11876221858914703,0.49792018163301655
6.258401766,-0.18379472753416456,-0.12167959009295522,0.4063916796197147
6.263402399,-0.20999513441303866,-0.12417101115567836,0.307362699626852
6.268402399,-0.22125864221207195,-0.12536790298294126,0.21285175999587594
6.273402732,-0.21911571444204747,-0.12423087118636751,0.13389427098974077
6.278402698,-0.20626171033962035,-0.1196838024327395,0.07930541837503702
6.283403364,-0.18608592308544958,-0.11075051798276976,0.054753346487144784
6.288403364,-0.1621330526644758,-0.09668556079947468,0.062216818107283654
6.293403397,-0.13757906430054193,-0.07709181825520846,0.09986087212440868
6.298403397,-0.11479958903444748,-0.05201678893285303,0.1623268223255183
6.303403397,-0.09509279923712634,-0.022017497456538172,0.24139882439372193
6.308403363,-0.07859273096330645,0.011817134451339585,0.3269772262224236
6.313403363,-0.06437771892724951,0.04789690774114926,0.40825921025485756
6.318403363,-0.050747501734763646,0.08422075509299767,0.4750020912016781
6.323403396,-0.03561731452018259,0.11852686059390674,0.5187282678881422
6.328403429,-0.016962219931845716,0.14849298624304577,0.5337284291059851
6.333403429,0.00675824046069717,0.1719671423301583,0.5177354483443946
6.338403429,0.03625728232135241,0.18719965737565203,0.4721766653072034
6.343403429,0.07120647565402012,0.19304244959536995,0.40196389711088115
6.348403429,0.11017580215532932,0.18908219117051384,0.3148417332722086
6.353403429,0.15073221339726903,0.17568223964134325,0.2203763685373176
6.358403395,0.18967938656660405,0.15392302763587937,0.12871970908739683
6.363403395,0.22340312563902176,0.12544937314984161,0.049317797503956824
6.368403395,0.24827431109051873,0.09225145347712681,-0.010258094364260208
6.373403428,0.2610566389627783,0.05641900536561707,-0.04519808866580248
6.378403428,0.2592703225502009,0.01991206074626918,-0.05394292994438238
6.383403428,0.2414740732805884,-0.015614768419703757,-0.03822334430450648
6.388403394,0.2074426424801364,-0.04891185035420471,-0.002666447209637621
6.39340336,0.1582316802207155,-0.07915359332364667,0.04595031642274429
6.398403326,0.09613233839641376,-0.10588968354804944,0.09967051618859353
6.403403326,0.02452412980600754,-0.12895285735514592,0.15040543059714742
6.408403359,-0.052362247521528064,-0.1483517778378571,0.19090925241984516
6.413403392,-0.12975735321841228,-0.1641744399096659,0.21556181544777622
6.418403425,-0.20272099637219096,-0.17651916308410887,0.22087954615977307
6.423403425,-0.2665390840369836,-0.1854598621287309,0.20572386006396015
6.428403425,-0.3171154746644488,-0.19104274650439793,0.17122239816898618
6.433403391,-0.35132040987255964,-0.1933046750116517,0.12045476724660238
6.438403391,-0.3672574330640334,-0.1923000775270919,0.057976110311115485
6.443403391,-0.36441702344524696,-0.18812401827221703,-0.010742309054198958
6.448403424,-0.3436972260846007,-0.18092311436852976,-0.07988421748611395
6.453403457,-0.3072879138249777,-0.1708921517102719,-0.14381705938268638
6.458403457,-0.25843348415541845,-0.15826023184807034,-0.19754510360524544
6.463403423,-0.20110544306422581,-0.14327422783966,-0.2370725381340925
6.468403389,-0.13962787434634719,-0.12618834211176116,-0.25967491141343385
6.473403355,-0.07830247467770869,-0.10726674919047369,-0.26408235316108625
6.478403321,-0.021074848745852526,-0.08680219962859922,-0.25057644452363403
6.483403321,0.028728302912481032,-0.065147973681614,-0.2209973537920676
6.488403354,0.0685770822102321,-0.042755251213475086,-0.1786526921355409
6.493403387,0.09683216747513891,-0.020204613626498693,-0.12811801259278888
6.49840342,0.11276557874471539,0.0017797458382706843,-0.07492327855219787
6.50340342,0.11652360292181417,0.02234139754139598,-0.025130318325109032
6.50840342,0.10904526110097487,0.0405317598574838,0.015178404487918405
6.51340302,0.09194434534093969,0.05537662688321585,0.04046249035645532
6.51840302,0.06735751657820499,0.06596252608809987,0.04628567676853877
6.52340302,0.03775866392207267,0.07153327812726695,0.029815763989345444
6.528403053,0.005742831918242906,0.0715853896561212,-0.009800255236429174
6.533403053,-0.02620862918871991,0.06595045899776382,-0.07123980266249129
6.538403053,-0.05595924818115345,0.054853545189419525,-0.1510229869532725
6.543403053,-0.0819139600958359,0.038938266105368005,-0.2437569680672574
6.548403053,-0.10314820729943086,0.019252157818944907,-0.34259115610821705
6.553403053,-0.11944405177571223,-0.00281041359643742,-0.4398434479727369
6.558403019,-0.13122292833826807,-0.025605612360648365,-0.5277383554882589
6.563403019,-0.13938421134517526,-0.04736975873690322,-0.5991851739388068
6.568403019,-0.145077500672673,-0.06636764566869298,-0.6485186891658642
6.573403052,-0.14944923240934144,-0.08104265780962551,-0.672126168769734
6.578403085,-0.15340745123312607,-0.09015200022485405,-0.6688919755282848
6.583403085,-0.1574420724544993,-0.09287361992653274,-0.640404463099653
6.588403051,-0.16152448923416235,-0.08887620688583835,-0.5908885740762028
6.593403017,-0.1650942727788338,-0.07834836835206778,-0.5268516787743778
6.598403017,-0.16712602701899087,-0.06198671872267033,-0.45645919632150334
6.603403017,-0.16625889871504337,-0.04094510961136804,-0.3886888033648385
6.60840305,-0.16096599929419106,-0.016748816061189966,-0.3323441730774997
6.61340305,-0.14974088812348468,0.008821569809810994,-0.29503604656816446
6.61840305,-0.13128194288404949,0.03387100205749144,-0.28225400585815885
6.62340305,-0.10466085652685594,0.05654847023286267,-0.2966513337617958
6.62840305,-0.06946658712628159,0.07521288780588327,-0.33764525176730137
6.63340305,-0.025919242550490218,0.08859192496034306,-0.4013972272351077
6.638403016,0.025051211720658256,0.09591541953461251,-0.4811886368995159
6.643403016,0.08176861253664242,0.09700343618024164,-0.5681540199835543
6.648403016,0.1418269525547306,0.09229160852858133,-0.652285954098322
6.653403049,0.20217165763393094,0.08278364029084422,-0.7235893990816147
6.658403049,0.2592562620967586,0.06993172467779686,-0.7732439822918336
6.663403415,0.30927797208689173,0.05545795280038433,-0.7946323532454462
6.668403381,0.3484836343950874,0.0411406277852311,-0.7841111684790109
6.673403381,0.3735229664393485,0.02859594290439134,-0.7414356708987312
6.678403381,0.38181219676642214,0.01908612847364579,-0.6697937979882025
6.683403414,0.37186219277274457,0.013380250371278657,-0.5754541965118389
6.688403414,0.3435232500688853,0.01168503756609199,-0.4670773800133165
6.693403414,0.298104897337177,0.013652426641704858,-0.3547750366760983
6.698403414,0.23834284148427134,0.01845959344124785,-0.24902591606280366
6.703403414,0.16820498668968237,0.024947395986611623,-0.15956669877160784
6.708403414,0.09255162635553009,0.03179573199969007,-0.0943733781551725
6.71340338,0.016687467548051144,0.03771069169342728,-0.05883474960081798
6.718403346,-0.05413961907606448,0.04159915492814006,-0.05519718255557001
6.723403346,-0.11523037188331778,0.04271095987603214,-0.08233179172069728
6.728403346,-0.162856897282016,0.04073542667007399,-0.13584410805686686
6.733403379,-0.19456980524793507,0.03584604597928874,-0.20851474792336086
6.738403379,-0.20936207385900615,0.028692857630845354,-0.2910294349672678
6.743403379,-0.20768248244804793,0.02034554016645146,-0.3729297852355849
6.748403345,-0.1913094503546985,0.01219193951122239,-0.4436941469958396
6.753403311,-0.16310919899613288,0.0057982674731472715,-0.4938422159870457
6.758402611,-0.12670997916862553,0.002740260267001191,-0.5159500278354012
6.763402611,-0.08612768425092782,0.004419719436577626,-0.5054653479541977
6.768402644,-0.045378531886944413,0.011886364985844642,-0.46122931812598816
6.773402677,-0.008112207235482227,0.02568774337855549,-0.38563902755940127
6.77840271,0.022705522847516854,0.04576796302318195,-0.2844253385431343
6.78340271,0.045037322430998644,0.07142965414281087,-0.16606562778685147
6.78840271,0.057928413852811285,0.1013649111136308,-0.04089497525021973
6.793402676,0.06155846117028413,0.13375234465227298,0.07998511425695731
6.798402676,0.05718503836536008,0.1664101714108651,0.18587876584789992
6.803402676,0.04697920635502479,0.19699008071905516,0.26761920376443665
6.808402709,0.03376245134445701,0.22319353108150292,0.31852168287138355
6.813402709,0.020665201471862658,0.24299078361940496,0.33506521460470856
6.818402709,0.01073909388681951,0.25482265436501644,0.31723472149384063
6.823402675,0.006565438840086313,0.2577652958285177,0.2684940746682024
6.828402641,0.009907774211001126,0.2516398837588079,0.19540061718207205
6.833402607,0.021454850775229642,0.23705288332360502,0.10690853587778487
6.838402607,0.04069149417424795,0.21535901722833803,0.013438166702983291
6.843402607,0.0659198274120803,0.1885476580717936,-0.0741914536832793
6.84840264,0.09443446970151818,0.15906284415868863,-0.1458599326001364
6.853402673,0.12283504192535935,0.12957566330155382,-0.19316687982974162
6.858402706,0.14744026770641136,0.10273351536912927,-0.21028156323777056
6.863402706,0.16475301262958134,0.08091246375594845,-0.19454256925122748
6.868402706,0.17191738622739994,0.06599633821883773,-0.1467518535159749
6.873402672,0.16710911946730475,0.05920082799431358,-0.07113363323662712
6.878402672,0.14980881054358275,0.06095499212430137,0.0250435801496932
6.883402672,0.12092274613580321,0.0708483900278582,0.1321551334459059
6.888402705,0.08273517321198832,0.08764947376033816,0.23916403287207355
6.893402705,0.038696160675620934,0.10939834581748567,0.3347397179562804
6.898402705,-0.006931742850897769,0.1335725278569677,0.40844851673836124
6.903402705,-0.049528463229360185,0.15731722903779538,0.45189621485186376
6.908403371,-0.08462102662165924,0.17772274912440747,0.45969713639789667
6.913403371,-0.10837929451909281,0.19212324466711217,0.43015237347366775
6.918403337,-0.1180449335535929,0.1983852245714036,0.3655445270711389
6.923403337,-0.11224425278470833,0.1951522363731512,0.27199629937122727
6.928403337,-0.09115063489546002,0.1820148722923694,0.15889077182703099
6.933402703,-0.05648117991443561,0.1595821878131564,0.03790529271136398
6.938402036,-0.011331485007808194,0.1294409486719832,-0.07823900431779546
6.943402036,0.040130659088458795,0.09400184874211483,-0.17717108665088105
6.948401102,0.09307908101957281,0.05624611727826808,-0.2482444624978341
6.953400168,0.14250852232003475,0.01940032032748676,-0.28372820422345685
6.958399268,0.18373276046901316,-0.013420892964082996,-0.2796710232822042
6.963398401,0.212853714723379,-0.03955799153616352,-0.23633459459436956
6.968397534,0.2271560587753779,-0.05709108722333393,-0.15814628435948558
6.973396867,0.22538815600257833,-0.06503047307708945,-0.05318205499160799
6.9783962,0.207900284915338,-0.06339279082208692,0.06775155302547994
6.983397133,0.17662431169318876,-0.05315972935770246,0.19232075410094154
6.988397133,0.13489372672596978,-0.036132422984782225,0.30800889508741414
6.993397133,0.0871177135435306,-0.01470696911591193,0.4034497860639819
6.998397099,0.03833658377461528,0.008397109751449187,0.4696093479800786
7.003397099,-0.006301972542902353,0.030423160397628,0.5007006987732683
7.008396432,-0.04209622671774174,0.04885018883768616,0.4947515858101234
7.013396465,-0.06531661956920717,0.061630165186403796,0.4537793788080201
7.018395565,-0.07364575659956984,0.06737401607160884,0.3835641093122075
7.023394898,-0.06647737438562398,0.06547495939535962,0.29304283712182444
7.028394198,-0.04503146595802444,0.05616047778420196,0.19337884861996274
7.033394198,-0.012262136984763436,0.04046608547967588,0.09678691753353046
7.038394198,0.027440640532907,0.020126923530988564,0.015220397103421698
7.043394231,0.06872809246011313,-0.00261108980426602,-0.04095458513459063
7.048394231,0.10589777127217985,-0.025249573851451396,-0.06416110032444164
7.053394231,0.13355856207723582,-0.04534258024421253,-0.05055310215820888
7.058394231,0.14727797024471168,-0.060813127313871146,-0.0005756868045327904
7.063394231,0.14413363314109295,-0.07023789772370427,0.08094511311183063
7.068394231,0.12309988026220789,-0.07305534792532095,0.18522397924887285
7.073394197,0.0852182038531968,-0.06966050301272758,0.3004302460341934
7.078394163,0.03352624656708863,-0.06136616112151133,0.413009888832608
7.083394829,-0.027249840719186427,-0.050231591503761094,0.5092709874032499
7.088395529,-0.09120457897620662,-0.03878125927190399,0.5770431161475823
7.093395562,-0.15190315520315625,-0.02965320910217408,0.6072005991304986
7.098396195,-0.2030941276621849,-0.02522671857179696,0.5948486376155765
7.103397095,-0.23939987378187488,-0.02728083050755435,0.5400098459270882
7.108397961,-0.256904097414751,-0.03672996831752515,0.4477114932067874
7.113398861,-0.2535700176103821,-0.053471508963851964,0.3274514923119123
7.118399761,-0.22944469484939944,-0.07636483618723437,0.19210252293806315
7.123400461,-0.18663118336369053,-0.10334404159280237,0.056387330696924774
7.128400461,-0.12903746716182654,-0.13164926063020418,-0.06488544972455867
7.133399527,-0.06193607940481276,-0.1581468253858882,-0.15860369822735482
7.138399527,0.008611950980162588,-0.17969771492519526,-0.21492740317729714
7.143399527,0.07640248387845608,-0.19352829198047378,-0.22845708705805123
7.148399527,0.13573165707244642,-0.19755771839233396,-0.19884541690749072
7.153399493,0.18196838391155512,-0.19064282629718896,-0.13077383606629023
7.158400159,0.21199605137494681,-0.17271271369032581,-0.03329970476531979
7.163400159,0.2244780203205282,-0.14478015921219725,0.08133619558344661
7.168401092,0.21992056543173233,-0.10883274839278342,0.19927924122367952
7.173401758,0.2005293432439527,-0.06762090464189142,0.30679505451602457
7.178402424,0.16987954219851395,-0.024370994247873968,0.3919359735129588
7.18340239,0.13244261443297614,0.017541476235868037,0.4459219547545659
7.188402356,0.09303031030669962,0.05492089480447131,0.46406382198178814
7.193402322,0.056226518786034164,0.08504645645615715,0.4461268421965543
7.198402322,0.025877363790250876,0.10590175748757395,0.3961150044684626
7.203402322,0.004699848577515364,0.11631687115441768,0.3215371667130344
7.208402355,-0.00594950696587596,0.11601300595037335,0.23228271332137354
7.213402388,-0.0061288730655346515,0.10555358219536794,0.13927773669227667
7.218402421,0.0028038965222078947,0.08621783005097408,0.05310905131171027
7.223402421,0.0184463248552739,0.05982120140147407,-0.017207080188828282
7.228402421,0.037703345467140686,0.028509745891591914,-0.0651679716990226
7.233402387,0.05718778952959076,-0.005446515745276435,-0.08734550938569319
7.238402387,0.0736227083396405,-0.039841720821177165,-0.08352928153446945
7.243402387,0.08420547030446728,-0.07269117628309653,-0.056473381472502505
7.248402687,0.08690189198901987,-0.1023508693776364,-0.011317171956747899
7.253402687,0.08064683388954975,-0.12759732730053353,0.04521577668633994
7.258402687,0.06543533188190481,-0.1476677960000238,0.1057205012564997
7.263402653,0.04229640995674553,-0.16226185329512224,0.16299721258825317
7.268402619,0.01315160567410073,-0.17150712740079352,0.2108208490766429
7.273402585,-0.01942762075664281,-0.1758942924494029,0.24452095727739076
7.278403251,-0.05253635023713182,-0.17618933906789802,0.2613330476160885
7.283403284,-0.08328798118568284,-0.17333304667480587,0.2605163679698826
7.288403317,-0.10915601774033781,-0.1683377459960638,0.24326123913196412
7.29340335,-0.1282603099502417,-0.16218991065056798,0.2124274618673163
7.29840335,-0.13955902086260932,-0.1557645889983656,0.17216224751321654
7.30340335,-0.1429208337071202,-0.14975520705895393,0.12744333735005423
7.308403316,-0.13906970211016767,-0.14462097313172242,0.08358478004574951
7.313403316,-0.1294140629888137,-0.14055459302964318,0.04573448720868206
7.318403316,-0.11579059454858806,-0.13747448867376913,0.01838846288919007
7.323403349,-0.10016586998056472,-0.13504626874374454,0.004948295464566424
7.328403382,-0.08434480317654877,-0.1327360158659951,0.007354741583106428
7.333403382,-0.06973137814025615,-0.12989263751516872,0.02583699549441883
7.338403382,-0.057175705043273156,-0.12584961776040954,0.05881931346022849
7.343403382,-0.04692472264554916,-0.1200306863005505,0.10301945981881513
7.348403382,-0.038675647090797766,-0.11204138903340549,0.15375469592843055
7.353403382,-0.03171521779129722,-0.10173018445570287,0.205442032100749
7.358403348,-0.02511640600623168,-0.08920837638833254,0.25224513586060743
7.363403348,-0.01795837534105859,-0.07482690935346016,0.28878814297690064
