Time (s),Acceleration x (m/s^2),Acceleration y (m/s^2),Acceleration z (m/s^2)
4.001879493,20161500498559.312,-370589311311746.5,1740943638970554.0
4.006634857,21061269550807.47,-370045341253100.0,1731068600222412.0
4.011390222,21956517455882.75,-369493919496686.5,1721199783498490.0
4.016145586,22847241011809.594,-368935096957702.5,1711337391978506.0
4.020900951,23733437208857.47,-368368924568220.0,1701481627285742.0
4.025656368,24615103228939.656,-367795453280032.0,1691632689502262.0
4.030411732,25492236444961.5,-367214734067316.5,1681790777183784.0
4.035167097,26364834420119.062,-366626817929115.5,1671956087374188.0
4.039922461,27232894907149.375,-366031755891628.0,1662128815619648.0
4.044677826,28096415847533.438,-365429599010316.5,1652309155982374.0
4.049433243,28955395370653.406,-364820398371825.5,1642497301053952.0
4.054188607,29809831792905.594,-364204205095709.0,1632693441968268.0
4.058943972,30659723616770.906,-363581070335966.5,1622897768414002.0
4.063699336,31505069529844.156,-362951045282385.5,1613110468646686.0
4.068454701,32345868403823.72,-362314181161690.5,1603331729500328.0
4.073210066,33182119293462.906,-361670529238500.0,1593561736398616.0
4.077965482,34013821435484.375,-361020140816093.0,1583800673365710.0
4.082720847,34840974247459.0,-360363067236987.5,1574048723036640.0
4.087476211,35663577326650.625,-359699359883330.0,1564306066667320.0
4.092231576,36481630448828.19,-359029070177099.0,1554572884144198.0
4.096986941,37295133567046.44,-358352249580125.0,1544849353993562.0
4.101742357,38104086810396.5,-357668949593932.0,1535135653390520.0
4.106497722,38908490482727.31,-356979221759402.5,1525431958167664.0
4.111253086,39708345061338.875,-356283117656265.5,1515738442823414.0
4.116008451,40503651195647.875,-355580688902405.5,1506055280530042.0
4.120763816,41294409705826.375,-354871987152991.0,1496382643141386.0
4.125519232,42080621581414.56,-354157064099424.0,1486720701200258.0
4.130274597,42862287979908.5,-353435971468108.5,1477069623945560.0
4.135029961,43639410225323.875,-352708761019039.0,1467429579319128.0
4.139785326,44411989806736.5,-351975484544210.0,1457800733972310.0
4.144540691,45180028376800.06,-351236193865850.0,1448183253272284.0
4.149296055,45943527750241.5,-350490940834484.0,1438577301308132.0
4.154051472,46702489902334.81,-349739777326826.0,1428983040896700.0
4.158806836,47456916967354.56,-348982755243504.0,1419400633588278.0
4.163562201,48206811237010.5,-348219926506620.0,1409830239672126.0
4.168317566,48952175158864.81,-347451343057152.5,1400272018181856.0
4.17307293,49693011334733.69,-346677056852214.0,1390726126900674.0
4.177828347,50429322519074.375,-345897119862177.5,1381192722366496.0
4.182583711,51161111617358.75,-345111584067686.0,1371671959876960.0
4.187339076,51888381684434.125,-344320501456559.0,1362163993494350.0
4.192094441,52611135922871.94,-343523924020608.0,1352668976050456.0
4.196849805,53329377681305.0,-342721903752375.0,1343187059151392.0
4.201605222,54043110452754.0,-341914492641804.5,1333718393182384.0
4.206360586,54752337872944.06,-341101742672858.0,1324263127312524.0
4.211115951,55457063718612.625,-340283705820080.5,1314821409499478.0
4.215871316,56157291905809.875,-339460434045125.0,1305393386494144.0
4.220626732,56853026488192.94,-338631979293237.5,1295979203845242.0
4.225382097,57544271655315.25,-337798393489704.0,1286579005903826.0
4.230137461,58231031730912.25,-336959728536260.0,1277192935827708.0
4.234892826,58913311171184.375,-336116036307464.5,1267821135585782.0
4.239648191,59591114563078.56,-335267368647040.5,1258463745962248.0
4.244403555,60264446622569.25,-334413777364181.5,1249120906560736.0
4.249158972,60933312192939.81,-333555314229822.5,1239792755808322.0
4.253914336,61597716243064.75,-332692030972877.0,1230479430959426.0
4.258669701,62257663865693.25,-331823979276442.5,1221181068099582.0
4.263425066,62913160275734.25,-330951210773978.0,1211897802149064.0
4.268180482,63564210808543.125,-330073777045455.5,1202629766866354.0
4.272935847,64210820918210.125,-329191729613488.0,1193377094851446.0
4.277691211,64852996175850.625,-328305119939434.0,1184139917548992.0
4.282446576,65490742267896.56,-327413999419479.5,1174918365251286.0
4.287201941,66124064994388.81,-326518419380702.0,1165712567101078.0
4.291957357,66752970267270.44,-325618431077121.5,1156522651094208.0
4.296712722,67377464108680.875,-324714085685742.0,1147348744082046.0
4.301468086,67997552649250.94,-323805434302588.0,1138190971773725.0
4.306223451,68613242126398.44,-322892527938739.0,1129049458738155.0
4.310978816,69224538882624.125,-321975417516366.5,1119924328405819.0
4.315734232,69831449363806.81,-321054153864775.5,1110815703070355.0
4.320489597,70433980117496.75,-320128787716454.0,1101723703889922.0
4.325244961,71032137791206.62,-319199369703133.0,1092648450888357.0
4.330000326,71625929130699.88,-318265950351857.0,1083590062956139.0
4.334755691,72215360978276.12,-317328580081064.5,1074548657851176.0
4.339511107,72800440271053.25,-316387309196678.5,1065524352199427.0
4.344266472,73381174039245.25,-315442187888210.0,1056517261495374.0
4.349021836,73957569404435.12,-314493266224876.5,1047527500102360.0
4.353777201,74529633577842.0,-313540594151737.0,1038555181252808.0
4.358532566,75097373858581.5,-312584221485847.0,1029600417048338.0
4.363287982,75660797631918.38,-311624197912435.0,1020663318459798.0
4.368043347,76219912367510.75,-310660572981105.0,1011743995327229.0
4.372798711,76774725617645.88,-309693396102067.5,1002842556359779.0
4.377554076,77325245015467.88,-308722716542402.5,993959109135587.0
4.382309493,77871478273197.75,-307748583422360.5,985093760101666.0
4.387064857,78413433180346.62,-306771045711708.0,976246614573811.0
4.391820222,78951117601923.38,-305790152226121.5,967417776736562.0
4.396575586,79484539476638.5,-304805951623632.0,958607349643247.0
4.401330951,80013706815106.38,-303818492401122.5,949815435216138.0
4.406086368,80538627698047.75,-302827822890882.0,941042134246751.0
4.410841732,81059310274494.62,-301833991257219.0,932287546396315.0
4.415597097,81575762759999.88,-300837045493136.0,923551770196429.0
4.420352461,82087993434854.5,-299837033417064.5,914834903049923.0
4.425107826,82596010642314.75,-298834002669662.0,906137041231935.0
4.429863243,83099822786841.75,-297828000710676.0,897458279891208.0
4.434618607,83599438332356.12,-296819074815877.5,888798713051613.0
4.439373972,84094865800509.75,-295807272074065.5,880158433613905.0
4.444129336,84586113768976.38,-294792639384142.0,871537533357714.0
4.448884701,85073190869763.12,-293775223452259.0,862936102943773.0
4.453640118,85556105787544.88,-292755070789040.0,854354231916381.0
4.458395482,86034867258024.12,-291732227706876.5,845792008706096.0
4.463150847,86509484066317.62,-290706740317300.0,837249520632659.0
4.467906211,86979965045370.38,-289678654528430.0,828726853908152.0
4.472661628,87446319074397.12,-288648016042500.5,820224093640393.0
4.477416993,87908555077352.75,-287614870353467.5,811741323836574.0
4.482172357,88366682021433.25,-286579262744701.0,803278627407149.0
4.486927722,88820708915609.12,-285541238286763.5,794836086169967.0
4.491683086,89270644809192.25,-284500841835280.25,786413780854643.0
4.496438503,89716498790437.0,-283458118028908.0,778011791107164.0
4.501193868,90158279985176.5,-282413111287405.75,769630195494722.0
4.505949232,90595997555495.12,-281365865809810.25,761269071510767.0
4.510704597,91029660698438.75,-280316425572717.25,752928495580277.0
4.515459961,91459278644763.12,-279264834328670.25,744608543065249.0
4.520215378,91884860657722.12,-278211135604658.25,736309288270423.0
4.524970743,92306416031897.5,-277155372700723.25,728030804449248.0
4.529726107,92723954092072.12,-276097588688674.75,719773163810094.0
4.534481472,93137484192148.25,-275037826410907.75,711536437522726.0
4.539236889,93547015714112.12,-273976128479322.25,703320695725051.0
4.543992253,93952558067046.75,-272912537274343.5,695126007530137.0
4.548747618,94354120686195.25,-271847094944040.75,686952441033505.0
4.553502982,94751713032076.12,-270779843403343.0,678800063320696.0
4.558258399,95145344589650.88,-269710824333348.5,670668940475106.0
4.563013764,95535024867545.12,-268640079180726.75,662559137586084.0
4.567769128,95920763397323.5,-267567649157211.25,654470718757290.0
4.572524493,96302569732817.5,-266493575239183.5,646403747115309.0
4.577279857,96680453449505.62,-265417898167346.75,638358284818510.0
4.582035274,97054424143944.5,-264340658446488.75,630334393066137.0
4.586790639,97424491433251.0,-263261896345332.0,622332132107620.0
4.591546003,97790664954635.12,-262181651896470.0,614351561252096.0
4.596301368,98152954364983.12,-261099964896388.0,606392738878132.0
4.601056784,98511369340490.5,-260016874905567.75,598455722443645.0
4.605812149,98865919576345.5,-258932421248676.75,590540568496015.0
4.610567514,99216614786463.25,-257846643014841.75,582647332682384.0
4.615322878,99563464703271.12,-256759579058005.5,574776069760132.0
4.620078243,99906479077546.0,-255671267997364.0,566926833607524.0
4.624833659,100245667678303.38,-254581748217882.0,559099677234525.0
4.629589024,100581040292737.88,-253491057870884.25,551294652793784.5
4.634344389,100912606726215.12,-252399234874719.5,543511811591788.0
4.639099753,101240376802314.25,-251306316915494.25,535751204100173.5
4.64385517,101564360362921.0,-250212341447872.75,528012879967212.0
4.648610534,101884567268370.5,-249117345695938.5,520296888029448.5
4.653365899,102201007397638.62,-248021366654113.5,512603276323497.5
4.658121264,102513690648581.38,-246924441088128.75,504932092097983.0
4.662876628,102822626938220.75,-245826605536040.5,497283381825613.5
4.667632045,103127826203074.75,-244727896309286.0,489657191215384.0
4.672387409,103429298399528.88,-243628349493774.25,482053565224901.0
4.677142774,103727053504246.12,-242528000951005.75,474472548072826.5
4.681898139,104021101514613.5,-241426886319215.25,466914183251436.0
4.686653555,104311452449223.5,-240325041014530.75,459378513539283.0
4.69140892,104598116348390.12,-239222500232142.0,451865581013967.0
4.696164284,104881103274698.0,-238119298947471.75,444375427065005.5
4.700919649,105160423313582.88,-237015471917345.5,436908092406810.5
4.705675066,105436086573941.5,-235911053681158.0,429463617091769.5
4.71043043,105708103188768.88,-234806078562037.25,422042040523431.0
4.715185795,105976483315821.5,-233700580668008.5,414643401469792.5
4.719941159,106241237138304.5,-232594593893160.25,407267738076685.0
4.724696576,106502374865580.5,-231488151918813.0,399915087881247.5
4.729451941,106759906733898.0,-230381288214691.25,392585487825488.5
4.734207305,107013843007137.25,-229274036040098.0,385278974269929.5
4.73896267,107264193977571.75,-228166428445090.5,377995583007325.0
4.743718034,107510969966643.25,-227058498271657.0,370735349276455.0
4.748473451,107754181325748.62,-225950278154893.75,363498307775986.5
4.753228816,107993838437036.75,-224841800524180.25,356284492678401.5
4.75798418,108229951714212.38,-223733097604348.0,349093937643984.5
4.762739545,108462531603344.12,-222624201416840.0,341926675834858.5
4.767494961,108691588583674.62,-221515143780858.0,334782739929059.5
4.772250326,108917133168430.62,-220405956314495.25,327662162134636.5
4.777005691,109139175905629.75,-219296670435852.25,320564974203765.0
4.781761055,109357727378880.75,-218187317364134.75,313491207446864.5
4.786516472,109572798208173.62,-217077928120733.75,306440892746707.5
4.791271836,109784399050656.25,-215968533530288.5,299414060572509.0
4.796027201,109992540601395.12,-214859164221734.25,292410740993986.0
4.800782566,110197233594117.88,-213749850629336.25,285430963695376.75
4.80553793,110398488801936.12,-212640622993711.5,278474757989409.25
4.810293347,110596317038047.62,-211531511362839.75,271542152831208.5
4.815048711,110790729156417.12,-210422545593063.75,264633176832129.5
4.819804076,110981736052435.62,-209313755350079.75,257747858273505.75
4.824559441,111169348663558.12,-208205170109916.5,250886225120301.75
4.829314857,111353577969920.75,-207096819159900.0,244048305034660.0
4.834070222,111534434994938.5,-205988731599602.25,237234125389330.75
4.838825586,111711930805884.25,-204880936341773.0,230443713280972.75
4.843580951,111886076514449.38,-203773462113254.25,223677095543313.25
4.848336368,112056883277286.88,-202666337455877.75,216934298760156.5
4.853091732,112224362296537.0,-201559590727344.0,210215349278229.75
4.857847097,112388524820335.75,-200453250102081.75,203520273219855.25
4.862602461,112549382143306.0,-199347343572088.0,196849096495437.5
4.867357878,112706945607030.5,-198241898947748.25,190201844815754.5
4.872113243,112861226600506.5,-197136943858637.0,183578543704043.25
4.876868607,113012236560581.25,-196032505754300.5,176979218507870.75
4.881623972,113159986972367.5,-194928611905024.75,170403894410781.0
4.886379389,113304489369638.0,-193825289402591.5,163852596443708.5
4.891134753,113445755335197.38,-192722565161025.75,157325349496150.25
4.895890118,113583796501230.12,-191620465917337.0,150822178327088.25
4.900645482,113718624549624.0,-190519018232255.75,144343107575655.0
4.905400899,113850251212267.5,-189418248490965.5,137888161771534.88
4.910156264,113978688271320.62,-188318182903831.75,131457365345096.0
4.914911628,114103947559458.25,-187218847507130.0,125050742637246.12
4.919666993,114226040960085.12,-186120268163775.25,118668317909005.88
4.924422357,114344980407521.62,-185022470564055.75,112310115350792.75
4.929177774,114460777887159.38,-183925480226372.75,105976159091409.5
4.933933139,114573445435585.88,-182829322497987.75,99666473206731.88
4.938688503,114682995140678.12,-181734022555777.25,93381081728089.62
4.943443868,114789439141665.25,-180639605406992.75,87120008650334.75
4.948199284,114892789629161.25,-179546095890022.5,80883277939591.0
4.952954649,114993058845168.62,-178453518675151.0,74670913540679.94
4.957710014,115090259083053.38,-177361898265309.75,68482939384217.875
4.962465378,115184402687491.38,-176271258996813.25,62319379393378.125
4.967220795,115275502054385.75,-175181625040073.5,56180257490314.19
4.971976159,115363569630756.0,-174093020400287.5,50065597602239.5
4.976731524,115448617914599.75,-173005468918092.75,43975423667159.19
4.981486889,115530659454727.38,-171918994270186.75,37909759639249.66
4.986242305,115609706850570.0,-170833619969907.0,31868629493882.125
4.99099767,115685772751962.38,-169749369367769.0,25852057232285.875
4.995753034,115758869858901.38,-168666265651960.0,19860066885847.375
5.000508451,115829010921280.62,-167584331848786.75,13892682520041.516
5.005263816,115896208738602.12,-166503590823077.75,7949928237991.346
5.01001918,115960476159666.0,-165424065278542.5,2031828183652.9922
5.014774545,116021826082239.0,-164345777758090.5,-3861593455377.5
5.019529961,116080271452702.0,-163268750644112.25,-9730312445438.375
5.024285326,116135825265677.25,-162193006158723.75,-15574304504760.094
5.029040691,116188500563635.75,-161118566363976.5,-21393545301809.344
5.033796055,116238310436484.38,-160045453162034.5,-27188010454021.188
5.03855142,116285268021133.0,-158973688295321.25,-32957675526921.188
5.043306836,116329386501041.38,-157903293346638.25,-38702516033639.06
5.048062201,116370679105745.25,-156834289739257.25,-44422507434815.125
5.052817566,116409159110360.88,-155766698736988.5,-50117625138900.125
5.057572982,116444839835067.0,-154700541444228.75,-55787844502848.875
5.062328347,116477734644563.75,-153635838805991.5,-61433140833207.44
5.067083711,116507856947507.12,-152572611607921.75,-67053489387593.25
5.071839076,116535220195917.38,-151510880476296.25,-72648865376566.62
5.076594493,116559837884560.38,-150450665878009.25,-78219243965891.38
5.081349857,116581723550301.38,-149391988120544.5,-83764600279182.38
5.086105222,116600890771431.75,-148334867351935.5,-89284909400937.12
5.090860586,116617353166970.38,-147279323560716.0,-94780146379947.75
5.095616003,116631124395940.38,-146225376575862.25,-100250286233089.88
5.100371368,116642218156621.88,-145173046066729.25,-105695303949484.5
5.105126732,116650648185780.75,-144122351542984.25,-111115174495028.25
5.109882097,116656428257872.62,-143073312354540.38,-116509872817287.12
5.114637514,116659572184221.38,-142025947691493.38,-121879373850748.12
5.119392878,116660093812171.75,-140980276584064.25,-127223652522422.75
5.124148243,116658007024215.38,-139936317902551.12,-132542683757795.38
5.128903607,116653325737089.25,-138894090357293.62,-137836442487109.5
5.133659024,116646063900845.38,-137853612498651.75,-143104903651984.0
5.138414389,116636235497890.75,-136814902717002.5,-148348042212352.25
5.143169753,116623854541996.88,-135777979242757.62,-153565833153717.0
5.14792517,116608935077277.88,-134742860146405.75,-158758251494712.5
5.152680534,116591491177135.38,-133709563338582.0,-163925272294964.0
5.157435899,116571536943168.12,-132678106570167.75,-169066870663235.25
5.162191264,116549086504044.25,-131648507432422.12,-174183021765854.5
5.166946628,116524154014334.25,-130620783357147.12,-179273700835408.75
5.171702045,116496753653302.75,-129594951616888.62,-184338883179695.75
5.176457409,116466899623657.38,-128571029325173.88,-189378544190922.25
5.181212774,116434606150254.25,-127549033436786.0,-194392659355137.75
5.185968191,116399887478759.62,-126528980748076.12,-199381204261891.75
5.190723555,116362757874267.0,-125510887897314.38,-204344154614103.5
5.19547892,116323231619869.25,-124494771365080.75,-209281486238134.0
5.200234284,116281323015184.75,-123480647474695.75,-214193175094049.5
5.204989701,116237046374837.38,-122468532392689.75,-219079197286065.25
5.209745066,116190416026891.0,-121458442129310.38,-223939529073157.75
5.21450043,116141446311239.12,-120450392539067.38,-228774146879833.75
5.219255795,116090151577950.25,-119444399321315.0,-233583027307044.0
5.224011211,116036546185569.25,-118440478020871.5,-238366147143231.0
5.228766576,115980644499375.25,-117438644028674.5,-243123483375500.0
5.233521941,115922460889596.88,-116438912582470.38,-247855013200902.5
5.238277357,115862009729585.5,-115441298767536.25,-252560714037821.5
5.243032722,115799305393947.0,-114445817517431.62,-257240563537446.75
5.247788086,115734362256632.62,-113452483614775.88,-261894539595327.75
5.252543451,115667194688990.25,-112461311692048.62,-266522620362991.75
5.257298868,115597817057777.62,-111472316232410.12,-271124784259613.5
5.262054232,115526243723140.62,-110485511570538.62,-275701009983722.75
5.266809597,115452489036560.0,-109500911893481.38,-280251276524938.0
5.271565014,115376567338769.88,-108518531241516.25,-284775563175715.5
5.276320378,115298492957651.62,-107538383509021.38,-289273849543103.0
5.281075743,115218280206106.62,-106560482445349.88,-293746115560487.5
5.285831107,115135943379910.5,-105584841655707.38,-298192341499326.0
5.290586524,115051496755551.25,-104611474602030.25,-302612507980847.5
5.295341889,114964954588053.62,-103640394603862.25,-307006595987717.5
5.300097253,114876331108792.75,-102671614839227.38,-311374586875655.0
5.304852618,114785640523299.88,-101705148345497.88,-315716462384990.5
5.309608034,114692897009062.25,-100741008020256.88,-320032204652155.0
5.314363399,114598114713318.62,-99779206622155.75,-324321796221094.5
5.319118764,114501307750852.25,-98819756771766.0,-328585220054603.5
5.32387418,114402490201784.0,-97862670952425.12,-332822459545570.5
5.328629545,114301676109368.5,-96907961511075.88,-337033498528128.0
5.333384909,114198879477795.38,-95955640659097.62,-341218321288703.0
5.338140274,114094114269998.25,-95005720473129.12,-345376912576963.0
5.342895691,113987394405474.5,-94058212895882.38,-349509257616650.5
5.347651055,113878733758118.62,-93113129736947.25,-353615342116305.0
5.35240642,113768146154072.88,-92170482673586.75,-357695152279871.0
5.357161836,113655645369598.25,-91230283251522.62,-361748674817189.0
5.361917201,113541245128968.62,-90292542885710.38,-365775896954368.0
5.366672566,113424959102392.0,-89357272861103.75,-369776806444038.5
5.37142793,113306800903962.38,-88424484333409.0,-373751391575484.5
5.376183347,113186784089645.38,-87494188329829.38,-377699641184655.5
5.380938711,113064922155300.12,-86566395749800.0,-381621544664062.5
