"Time (s)","Acceleration x (m/s^2)","Acceleration y (m/s^2)","Acceleration z (m/s^2)"
1.277526100E-2,-1.187524080E0,5.657797813E0,8.667309761E0
1.477526100E-2,-1.381454349E0,5.540482044E0,8.339303970E0
1.676026100E-2,-1.534683347E0,5.418377876E0,8.063970566E0
1.876026100E-2,-1.656787634E0,5.308244228E0,7.838915825E0
2.076026100E-2,-1.750161409E0,5.198111057E0,7.654561996E0
2.276026100E-2,-1.810016513E0,5.092766285E0,7.506121635E0
2.476446100E-2,-1.848323703E0,5.001786709E0,7.386411667E0
2.675996100E-2,-1.857900500E0,4.908412933E0,7.290643215E0
2.875996100E-2,-1.838746905E0,4.821922302E0,7.214028835E0
3.075746100E-2,-1.807622313E0,4.745307922E0,7.151779652E0
3.275746100E-2,-1.745373011E0,4.678270340E0,7.099107265E0
3.475746100E-2,-1.663970232E0,4.618414879E0,7.056011677E0
3.675746100E-2,-1.584961534E0,4.553771496E0,7.024887085E0
3.875746100E-2,-1.486799240E0,4.491522312E0,7.008127689E0
4.075753700E-2,-1.391031146E0,4.434061527E0,6.998550892E0
4.275753700E-2,-1.278503656E0,4.381389141E0,7.005733490E0
4.475760300E-2,-1.151610970E0,4.338293552E0,7.029675484E0
4.675766500E-2,-1.027112484E0,4.299986362E0,7.060800076E0
4.875772300E-2,-8.906430602E-1,4.268861771E0,7.115866661E0
5.075761100E-2,-7.422025204E-1,4.247313976E0,7.187692642E0
5.275766300E-2,-6.033388376E-1,4.230554581E0,7.259518623E0
5.475771300E-2,-4.548983276E-1,4.223371983E0,7.350498676E0
5.675771300E-2,-3.064578176E-1,4.225766182E0,7.463026047E0
5.875771300E-2,-1.771709323E-1,4.232948780E0,7.575553417E0
6.075771300E-2,-5.506663769E-2,4.249708176E0,7.712022781E0
6.275771300E-2,4.788403213E-2,4.271255970E0,7.843704224E0
6.475771300E-2,1.388636976E-1,4.311957359E0,7.996932983E0
6.675771300E-2,2.202665508E-1,4.362235546E0,8.159738541E0
6.875771300E-2,2.920926213E-1,4.414907932E0,8.308178902E0
7.075771300E-2,3.615244627E-1,4.479551315E0,8.463802338E0
7.275774700E-2,4.333505034E-1,4.544194698E0,8.617031097E0
7.475778000E-2,4.955997467E-1,4.596867085E0,8.751106262E0
7.675831300E-2,5.530605912E-1,4.632780075E0,8.882787704E0
7.875834600E-2,5.961562395E-1,4.651933670E0,9.007286072E0
8.075837900E-2,6.272808313E-1,4.663905144E0,9.115025520E0
8.275841200E-2,6.368576288E-1,4.661510944E0,9.213187218E0
8.475774500E-2,6.224924326E-1,4.644751072E0,9.296984673E0
8.675867800E-2,5.937620401E-1,4.620809078E0,9.366415977E0
8.875867800E-2,5.434837937E-1,4.592078686E0,9.414299965E0
9.075934400E-2,4.908113480E-1,4.565742493E0,9.447818756E0
9.275934400E-2,4.165911078E-1,4.534617901E0,9.457395554E0
9.475934400E-2,3.160346150E-1,4.510675907E0,9.443030357E0
9.675934400E-2,2.106897533E-1,4.496310711E0,9.419088364E0
9.875934400E-2,7.422025502E-2,4.498704910E0,9.373599052E0
1.007593100E-1,-9.816227108E-2,4.527435303E0,9.308955193E0
1.027593100E-1,-2.753331959E-1,4.575319290E0,9.246706009E0
1.047592760E-1,-5.003881454E-1,4.661510944E0,9.177274704E0
1.067592420E-1,-7.278373241E-1,4.728548527E0,9.112630844E0
1.087592080E-1,-9.241618514E-1,4.764461517E0,9.062353134E0
1.107592740E-1,-1.094150186E0,4.735731125E0,9.016862869E0
1.127592400E-1,-1.230619669E0,4.651933670E0,8.973767281E0
1.147592060E-1,-1.340752959E0,4.556165695E0,8.935460091E0
1.167592060E-1,-1.426944256E0,4.426878929E0,8.892364502E0
1.187592390E-1,-1.501164436E0,4.299986362E0,8.851662636E0
1.207592720E-1,-1.561019540E0,4.149151325E0,8.801384926E0
1.227593050E-1,-1.596932530E0,3.986345768E0,8.739135742E0
1.247593380E-1,-1.616086125E0,3.837905407E0,8.676886559E0
1.267593710E-1,-1.601720929E0,3.691859007E0,8.597877502E0
1.287594040E-1,-1.546654344E0,3.550601006E0,8.504503250E0
1.307594370E-1,-1.479616642E0,3.428496838E0,8.413523674E0
1.327594370E-1,-1.379060149E0,3.320757866E0,8.310573578E0
1.347594030E-1,-1.249773264E0,3.234566450E0,8.200440407E0
1.367598690E-1,-1.125274777E0,3.169923067E0,8.099884033E0
1.387598350E-1,-9.983820915E-1,3.134010077E0,7.994538784E0
1.407598010E-1,-8.690952063E-1,3.117250681E0,7.898770809E0
1.427597670E-1,-7.517793179E-1,3.126827478E0,7.798214436E0
1.447597330E-1,-6.200982332E-1,3.141192675E0,7.702445984E0
1.467596990E-1,-4.908113480E-1,3.155557871E0,7.623437405E0
1.487596990E-1,-3.399766386E-1,3.165134668E0,7.561188221E0
1.507596990E-1,-1.723825186E-1,3.165134668E0,7.520486832E0
1.527596990E-1,7.182605099E-3,3.157952070E0,7.494150639E0
1.547596990E-1,1.771709323E-1,3.145981073E0,7.477391243E0
1.567596990E-1,3.639186621E-1,3.122039080E0,7.467814445E0
1.587596990E-1,5.386953950E-1,3.093308687E0,7.460631847E0
1.607596990E-1,7.302315235E-1,3.047818661E0,7.448660851E0
1.627596990E-1,9.289502501E-1,2.985569477E0,7.431901455E0
1.647596990E-1,1.108515382E0,2.923320293E0,7.412747860E0
1.667597320E-1,1.290474772E0,2.846705914E0,7.384017467E0
1.687597650E-1,1.450886250E0,2.774879694E0,7.352892876E0
1.707597980E-1,1.606509328E0,2.698265314E0,7.314585686E0
1.727598310E-1,1.742978811E0,2.616862535E0,7.278672218E0
1.747598640E-1,1.857900500E0,2.545036316E0,7.247547626E0
1.767598970E-1,1.951274395E0,2.473210335E0,7.218817234E0
1.787598970E-1,2.020706177E0,2.410961151E0,7.197269440E0
1.807598630E-1,2.073378563E0,2.358288765E0,7.178115845E0
1.827598290E-1,2.104503393E0,2.284068346E0,7.163750648E0
1.847597950E-1,2.087743998E0,2.171540976E0,7.146991253E0
1.867597610E-1,2.035071373E0,2.056619167E0,7.130231857E0
1.887597270E-1,1.860294700E0,1.929726601E0,7.113472462E0
1.907596930E-1,1.561019540E0,1.805228114E0,7.135020256E0
1.927596590E-1,1.216254473E0,1.707065821E0,7.206846237E0
1.947596590E-1,9.169792533E-1,1.637633920E0,7.295432091E0
1.967591920E-1,6.775590777E-1,1.596932530E0,7.398382664E0
1.987592250E-1,5.219359994E-1,1.599326730E0,7.556399822E0
2.007592580E-1,4.237737060E-1,1.630451322E0,7.767089367E0
2.027592910E-1,3.471592367E-1,1.673547029E0,7.980173588E0
2.047593240E-1,2.705447972E-1,1.733402014E0,8.233959198E0
2.067593570E-1,1.723825186E-1,1.802833915E0,8.502109528E0
2.087593900E-1,7.422025502E-2,1.867477298E0,8.741529465E0
2.107598230E-1,-4.070143029E-2,1.927332401E0,8.961795807E0
2.127598230E-1,-1.628057212E-1,1.972822189E0,9.134179115E0
2.147598230E-1,-2.705447972E-1,2.006340981E0,9.261071205E0
2.167598230E-1,-3.663128614E-1,2.015917778E0,9.332897186E0
2.187598230E-1,-4.429273009E-1,2.011129379E0,9.349657059E0
2.207598230E-1,-5.003881454E-1,1.970427990E0,9.342473984E0
2.227598230E-1,-5.291185975E-1,1.884236693E0,9.287407875E0
2.247598230E-1,-5.410895944E-1,1.788468719E0,9.215581894E0
2.267597890E-1,-5.243301988E-1,1.659181833E0,9.103054047E0
2.287597550E-1,-4.764461517E-1,1.505952835E0,8.959402084E0
2.307597210E-1,-4.261679053E-1,1.359906554E0,8.818143845E0
2.327596870E-1,-3.663128614E-1,1.197100878E0,8.655338287E0
2.347596530E-1,-2.920926213E-1,1.024718285E0,8.478167534E0
2.367596190E-1,-2.226607651E-1,8.667010069E-1,8.310573578E0
2.387595850E-1,-1.460463107E-1,7.086837292E-1,8.131008148E0
2.407595850E-1,-6.703764945E-2,5.482721925E-1,7.949048996E0
2.427595850E-1,2.394201700E-3,4.070142806E-1,7.783848763E0
2.447596180E-1,8.379705995E-2,2.657563984E-1,7.625831604E0
2.467596510E-1,1.867477298E-1,1.412578970E-1,7.482179642E0
2.487596840E-1,2.920926213E-1,1.197100803E-2,7.357681274E0
2.507597170E-1,4.237737060E-1,-1.077390760E-1,7.237970829E0
2.527597500E-1,5.698199868E-1,-2.226607651E-1,7.125443459E0
2.547597830E-1,7.086837292E-1,-3.256114423E-1,7.027281284E0
2.567597830E-1,8.547300100E-1,-4.309563041E-1,6.938695908E0
2.587597490E-1,9.864110947E-1,-5.243301988E-1,6.862081528E0
2.607597150E-1,1.113303781E0,-6.177040339E-1,6.795043468E0
2.627596810E-1,1.233013868E0,-7.110779285E-1,6.725611687E0
2.647596470E-1,1.338358760E0,-7.996633649E-1,6.663362503E0
2.667596130E-1,1.436521053E0,-8.978256583E-1,6.601113319E0
2.687595790E-1,1.525106430E0,-1.010353088E0,6.534075737E0
2.707591450E-1,1.599326730E0,-1.115697980E0,6.469432354E0
2.727591450E-1,1.663970232E0,-1.230619669E0,6.402394772E0
2.747591780E-1,1.716642618E0,-1.340752959E0,6.340145588E0
2.767592110E-1,1.759738207E0,-1.467645645E0,6.275501728E0
2.787592440E-1,1.793257117E0,-1.613691926E0,6.215646744E0
2.807592770E-1,1.817199111E0,-1.747767210E0,6.165368557E0
2.827588100E-1,1.836352706E0,-1.900996208E0,6.119878769E0
2.847588430E-1,1.862688899E0,-2.070984364E0,6.079177380E0
2.867588760E-1,1.886630893E0,-2.231395960E0,6.045658588E0
2.887589090E-1,1.915361404E0,-2.410961151E0,6.021716595E0
2.907589090E-1,1.941697598E0,-2.612074137E0,6.004957199E0
2.927589090E-1,1.960851192E0,-2.798821688E0,5.992986202E0
2.947589090E-1,1.970427990E0,-3.002328873E0,5.983409405E0
2.967589090E-1,1.956062794E0,-3.213018656E0,5.978621006E0
2.987589090E-1,1.929726601E0,-3.402160645E0,5.978621006E0
3.007589090E-1,1.874659896E0,-3.581725836E0,5.988197803E0
3.027589090E-1,1.814804912E0,-3.737348795E0,6.000168800E0
3.047588750E-1,1.731007814E0,-3.881000996E0,6.021716595E0
3.067588410E-1,1.625662923E0,-4.003105164E0,6.057629585E0
3.087588070E-1,1.520318031E0,-4.108449936E0,6.100725174E0
3.107587730E-1,1.391031146E0,-4.211400986E0,6.170156956E0
3.127587390E-1,1.242590666E0,-4.319139957E0,6.263530731E0
3.147587050E-1,1.101332784E0,-4.422090530E0,6.354510784E0
3.167586710E-1,9.457096457E-1,-4.539406300E0,6.452672958E0
3.187586710E-1,7.805097699E-1,-4.668693542E0,6.553229332E0
3.207586710E-1,6.320692301E-1,-4.788403511E0,6.641814709E0
3.227587040E-1,4.908113480E-1,-4.915595531E0,6.716034889E0
3.247587370E-1,3.663128614E-1,-5.047276497E0,6.771101475E0
3.267587700E-1,2.633621991E-1,-5.166986465E0,6.811803341E0
3.287588030E-1,1.819593310E-1,-5.289090633E0,6.833351135E0
3.307588360E-1,1.197100878E-1,-5.399224281E0,6.842927933E0
3.327588690E-1,7.661445439E-2,-5.504569054E0,6.830956936E0
3.347588690E-1,4.548983276E-2,-5.609913826E0,6.799831867E0
3.367588690E-1,2.394201607E-2,-5.705681801E0,6.763918877E0
3.387588350E-1,1.436521020E-2,-5.808632374E0,6.708852291E0
3.407588010E-1,4.788403399E-3,-5.913977623E0,6.634632111E0
3.427592670E-1,-4.788403399E-3,-6.012139797E0,6.560411930E0
3.447592330E-1,-1.675941236E-2,-6.119878769E0,6.459855556E0
3.467591990E-1,-3.351882473E-2,-6.246771336E0,6.337751389E0
3.487591650E-1,-5.267243832E-2,-6.366481781E0,6.220435143E0
3.507591650E-1,-8.619125932E-2,-6.502951145E0,6.083965778E0
3.527591980E-1,-1.292868853E-1,-6.653785706E0,5.933131218E0
3.547592310E-1,-1.747767180E-1,-6.790255070E0,5.791872978E0
3.567592640E-1,-2.346317619E-1,-6.926724911E0,5.638644218E0
3.587592970E-1,-2.968810201E-1,-7.048829079E0,5.497386456E0
3.607593300E-1,-3.687070608E-1,-7.161356449E0,5.346551895E0
3.627593630E-1,-4.477157295E-1,-7.264307022E0,5.188534260E0
3.647593960E-1,-5.219359994E-1,-7.348104477E0,5.042488098E0
3.667594290E-1,-6.081272364E-1,-7.422324657E0,4.886565685E0
3.687594290E-1,-7.086837292E-1,-7.489362240E0,4.728548527E0
3.707594290E-1,-8.068459630E-1,-7.544428825E0,4.584896088E0
3.727594290E-1,-9.241618514E-1,-7.597101212E0,4.446032524E0
3.747594290E-1,-1.053448796E0,-7.649773598E0,4.319139957E0
3.767594290E-1,-1.175553083E0,-7.695263386E0,4.211400986E0
3.787594290E-1,-1.316810966E0,-7.740753174E0,4.113238335E0
3.807594290E-1,-1.474828243E0,-7.776666164E0,4.031835556E0
3.827593950E-1,-1.625662923E0,-7.807791233E0,3.962403774E0
3.847593610E-1,-1.800439715E0,-7.831733227E0,3.909731388E0
3.867593270E-1,-1.965639591E0,-7.853281021E0,3.873818398E0
3.887592930E-1,-2.145204782E0,-7.874828815E0,3.866635799E0
3.907592590E-1,-2.334346771E0,-7.896376610E0,3.895366192E0
3.927592250E-1,-2.506729126E0,-7.920318604E0,3.938461781E0
3.947591910E-1,-2.674323320E0,-7.949048996E0,4.019864559E0
3.967591570E-1,-2.839523315E0,-7.992144585E0,4.144362926E0
3.987591570E-1,-2.992752075E0,-8.042423248E0,4.278438568E0
4.007591900E-1,-3.165134668E0,-8.128614426E0,4.469974518E0
4.027592230E-1,-3.371036053E0,-8.248324394E0,4.714183331E0
4.047592560E-1,-3.572149038E0,-8.365639687E0,4.951508522E0
4.067592890E-1,-3.799597979E0,-8.494926453E0,5.214870453E0
4.087593220E-1,-4.015076160E0,-8.607454300E0,5.456685066E0
4.107593550E-1,-4.254496574E0,-8.700828552E0,5.696105003E0
4.127593550E-1,-4.517858505E0,-8.770259857E0,5.916371822E0
4.147593550E-1,-4.759673119E0,-8.820538521E0,6.100725174E0
4.167596210E-1,-5.013757706E0,-8.856451035E0,6.258742332E0
4.187595870E-1,-5.281908035E0,-8.889969826E0,6.397606373E0
4.207595530E-1,-5.526116848E0,-8.925883293E0,6.512527943E0
4.227595190E-1,-5.782296181E0,-8.983344078E0,6.615478516E0
4.247594850E-1,-6.040870190E0,-9.062353134E0,6.708852291E0
4.267594510E-1,-6.273107529E0,-9.143755913E0,6.790255070E0
4.287594510E-1,-6.512527943E0,-9.246706009E0,6.876446724E0
4.307594840E-1,-6.751947880E0,-9.359233856E0,6.957849503E0
4.327595170E-1,-6.991368294E0,-9.478943825E0,7.034463882E0
4.347595500E-1,-7.206846237E0,-9.589076996E0,7.099107265E0
4.367595830E-1,-7.400776863E0,-9.687239647E0,7.154173851E0
4.387596160E-1,-7.599495411E0,-9.780612946E0,7.204452038E0
4.407596490E-1,-7.803002834E0,-9.873987198E0,7.249941826E0
4.427596820E-1,-7.987356186E0,-9.955389977E0,7.290643215E0
4.447597150E-1,-8.183680534E0,-1.002721596E1,7.326556683E0
4.467597150E-1,-8.394370079E0,-1.009425354E1,7.362469673E0
4.487595810E-1,-8.593089104E0,-1.015410900E1,7.393594265E0
4.507595810E-1,-8.806173325E0,-1.020438671E1,7.422324657E0
4.527595810E-1,-9.040804863E0,-1.024030018E1,7.439084053E0
4.547595810E-1,-9.261071205E0,-1.026424217E1,7.451055050E0
4.567595810E-1,-9.498097420E0,-1.026663589E1,7.448660851E0
4.587595810E-1,-9.739912033E0,-1.026184750E1,7.427113056E0
4.607595470E-1,-9.955389977E0,-1.024269390E1,7.400776863E0
4.627595130E-1,-1.015889740E1,-1.021875191E1,7.367258072E0
4.647594790E-1,-1.033127975E1,-1.019959831E1,7.336133480E0
4.667594450E-1,-1.048211479E1,-1.018762779E1,7.312191486E0
4.687594110E-1,-1.061140156E1,-1.018762779E1,7.302614689E0
4.707593770E-1,-1.071674633E1,-1.019241619E1,7.302614689E0
4.727593430E-1,-1.080054283E1,-1.020917511E1,7.324162483E0
4.747593090E-1,-1.086758041E1,-1.022354031E1,7.355287075E0
4.767590090E-1,-1.092504120E1,-1.023072338E1,7.386411667E0
4.787590420E-1,-1.098250294E1,-1.022593498E1,7.429507256E0
4.807590750E-1,-1.103756905E1,-1.020678139E1,7.486968040E0
4.827591080E-1,-1.108545303E1,-1.018523312E1,7.544428825E0
4.847591410E-1,-1.113333702E1,-1.015171432E1,7.611466408E0
4.867591740E-1,-1.118361568E1,-1.011819553E1,7.680898190E0
4.887592070E-1,-1.123149967E1,-1.007509995E1,7.767089367E0
4.907592070E-1,-1.127938366E1,-1.002721596E1,7.855675220E0
4.927590070E-1,-1.132487297E1,-9.974543571E0,7.941866398E0
4.947589730E-1,-1.137036324E1,-9.929053307E0,8.018480301E0
4.967589390E-1,-1.142542934E1,-9.888352394E0,8.092700958E0
4.987589050E-1,-1.147810268E1,-9.854833603E0,8.154950142E0
5.007588710E-1,-1.154753399E1,-9.823708534E0,8.205228806E0
5.027588370E-1,-1.164330196E1,-9.799766541E0,8.243535995E0
5.047588030E-1,-1.174385834E1,-9.780612946E0,8.269871712E0
5.067588030E-1,-1.188032818E1,-9.768642426E0,8.279448509E0
5.087589690E-1,-1.204792213E1,-9.759065628E0,8.279448509E0
5.107590020E-1,-1.221072769E1,-9.754277229E0,8.274660110E0
5.127590350E-1,-1.240226364E1,-9.747094154E0,8.255506516E0
5.147590680E-1,-1.258661747E1,-9.737517357E0,8.233959198E0
5.167591010E-1,-1.279970169E1,-9.718363762E0,8.202834129E0
5.187591340E-1,-1.303433323E1,-9.684844971E0,8.166921616E0
5.207591670E-1,-1.325459957E1,-9.646537781E0,8.131008148E0
5.227592000E-1,-1.348683739E1,-9.596260071E0,8.095095634E0
5.247592000E-1,-1.372386360E1,-9.522039413E0,8.056788445E0
5.267592000E-1,-1.393455315E1,-9.445425034E0,8.025663376E0
5.287592000E-1,-1.412608910E1,-9.354445457E0,7.999327183E0
5.307592000E-1,-1.428889465E1,-9.261071205E0,7.975385189E0
5.327592000E-1,-1.441578770E1,-9.182063103E0,7.953837395E0
5.347592000E-1,-1.449479675E1,-9.105448723E0,7.927501202E0
5.367592000E-1,-1.452592087E1,-9.038411140E0,7.893982410E0
5.387585000E-1,-1.453070927E1,-8.983344078E0,7.862857819E0
5.407584660E-1,-1.449240208E1,-8.942642212E0,7.829339027E0
5.427584320E-1,-1.443254757E1,-8.911518097E0,7.800608635E0
5.447574980E-1,-1.432959652E1,-8.904335022E0,7.764695168E0
5.467565640E-1,-1.420270348E1,-8.911518097E0,7.728782177E0
5.487556300E-1,-1.408059978E1,-8.925883293E0,7.692869186E0
5.507546960E-1,-1.393934155E1,-8.947430611E0,7.644985199E0
5.527539620E-1,-1.377414131E1,-8.968978882E0,7.585130215E0
5.547530620E-1,-1.361612415E1,-8.988132477E0,7.530063629E0
5.567522280E-1,-1.343177128E1,-9.000102997E0,7.467814445E0
5.587517610E-1,-1.322108078E1,-9.016862869E0,7.403171062E0
5.607516610E-1,-1.301517963E1,-9.033622742E0,7.340921879E0
5.627511940E-1,-1.277575970E1,-9.050381660E0,7.273883820E0
5.647507270E-1,-1.255070496E1,-9.064746857E0,7.216423035E0
5.667506270E-1,-1.230649567E1,-9.071929932E0,7.154173851E0
5.687501270E-1,-1.205989361E1,-9.062353134E0,7.089530468E0
5.707496270E-1,-1.184441471E1,-9.043199539E0,7.032069683E0
5.727490930E-1,-1.163851357E1,-9.007286072E0,6.977003098E0
5.747485590E-1,-1.145176601E1,-8.954613686E0,6.924330711E0
5.767480250E-1,-1.129853725E1,-8.901941299E0,6.878840923E0
5.787478580E-1,-1.117882729E1,-8.854057312E0,6.840533733E0
5.807473240E-1,-1.108784771E1,-8.818143845E0,6.811803341E0
5.827467900E-1,-1.102081013E1,-8.794201851E0,6.790255070E0
5.847462900E-1,-1.098489666E1,-8.796596527E0,6.775889874E0
5.867457900E-1,-1.096813679E1,-8.825326920E0,6.766313076E0
5.887453230E-1,-1.095616627E1,-8.858845711E0,6.756736279E0
5.907448560E-1,-1.095377159E1,-8.909123421E0,6.739976883E0
5.927443890E-1,-1.095855999E1,-8.971372604E0,6.718429089E0
5.947439220E-1,-1.096334839E1,-9.031228065E0,6.696881294E0
5.967434550E-1,-1.097292614E1,-9.100660324E0,6.670545101E0
5.987436550E-1,-1.098010826E1,-9.167697906E0,6.644208908E0
6.007431880E-1,-1.098968506E1,-9.241917610E0,6.615478516E0
6.027426880E-1,-1.100883865E1,-9.316138268E0,6.586748123E0
6.047430880E-1,-1.103517532E1,-9.380781174E0,6.560411930E0
6.067434880E-1,-1.108545303E1,-9.440636635E0,6.531681538E0
6.087443880E-1,-1.117164421E1,-9.488520622E0,6.498162746E0
6.107452880E-1,-1.126741219E1,-9.529222488E0,6.462249756E0
6.127461880E-1,-1.139909363E1,-9.555558205E0,6.411971569E0
6.147470880E-1,-1.156908226E1,-9.562741280E0,6.342539787E0
6.167475210E-1,-1.173667622E1,-9.560346603E0,6.268319130E0
6.187479870E-1,-1.192821217E1,-9.543587685E0,6.170156956E0
6.207476530E-1,-1.210777760E1,-9.526827812E0,6.071994781E0
6.227481190E-1,-1.229931355E1,-9.502885818E0,5.949890614E0
6.247483520E-1,-1.248845577E1,-9.481337547E0,5.801449776E0
6.267484520E-1,-1.265604973E1,-9.462183952E0,5.660192013E0
6.287489180E-1,-1.282124901E1,-9.440636635E0,5.504569054E0
6.307493840E-1,-1.298644924E1,-9.423876762E0,5.341763496E0
6.327498840E-1,-1.313488960E1,-9.407117844E0,5.195716858E0
6.347504170E-1,-1.329290676E1,-9.383175850E0,5.049670696E0
6.367509500E-1,-1.346768379E1,-9.354445457E0,4.910807133E0
6.387511160E-1,-1.363048935E1,-9.323320389E0,4.790797710E0
6.407516490E-1,-1.381723690E1,-9.277831078E0,4.678270340E0
6.427521820E-1,-1.402313900E1,-9.220370293E0,4.572925091E0
6.447527150E-1,-1.421706867E1,-9.160514832E0,4.481945515E0
6.467532480E-1,-1.443015289E1,-9.083900452E0,4.400542736E0
6.487537480E-1,-1.462887192E1,-9.009679794E0,4.333505154E0
6.507542140E-1,-1.484704304E1,-8.928277016E0,4.288015366E0
6.527546800E-1,-1.508885765E1,-8.846874237E0,4.273650169E0
6.547551460E-1,-1.531630707E1,-8.767866135E0,4.278438568E0
6.567556120E-1,-1.555812073E1,-8.681674957E0,4.321534157E0
6.587560780E-1,-1.580472374E1,-8.581118584E0,4.400542736E0
6.607565440E-1,-1.602259636E1,-8.482955933E0,4.489128113E0
6.627570440E-1,-1.622849846E1,-8.370428085E0,4.611232281E0
6.647575440E-1,-1.641285133E1,-8.243535995E0,4.754884720E0
6.667580770E-1,-1.656368637E1,-8.126219749E0,4.891354084E0
6.687581100E-1,-1.668100166E1,-8.006509781E0,5.042488098E0
6.707581430E-1,-1.677676964E1,-7.886799812E0,5.207687855E0
6.727581760E-1,-1.685577774E1,-7.774271965E0,5.377676487E0
6.747582090E-1,-1.692042160E1,-7.673715591E0,5.533299446E0
6.767586420E-1,-1.697788239E1,-7.580341816E0,5.676951408E0
6.787586750E-1,-1.703294945E1,-7.486968040E0,5.825392246E0
6.807593080E-1,-1.709759331E1,-7.395988464E0,5.973832607E0
6.827593080E-1,-1.715505409E1,-7.312191486E0,6.107907772E0
6.847595410E-1,-1.721730232E1,-7.223605633E0,6.239588737E0
6.867595410E-1,-1.726997566E1,-7.125443459E0,6.368875980E0
6.887595410E-1,-1.731307030E1,-7.034463882E0,6.483797550E0
