Time (s),Acceleration x (m/s^2),Acceleration y (m/s^2),Acceleration z (m/s^2)
6.000034798,7.877171993,-10.9304142,0.1028913707
6.004789381,7.958528042,-10.74138069,0.3708875179
6.009543964,8.195417404,-10.65763187,0.4307080805
6.014298548,8.33180809,-10.5858469,0.3326023519
6.019053079,8.523234367,-10.52124119,0.1627119333
6.023807662,8.752944946,-10.39920712,-0.02871387079
6.028562246,8.944371223,-10.26042366,-0.3086741269
6.033316829,9.011369705,-9.990034103,-0.4737788737
6.038071412,9.061619759,-9.674181938,-0.6053841114
6.042825996,9.018548965,-9.31525898,-0.6699903607
6.047580527,8.987442017,-9.013762474,-0.5910272002
6.05233511,8.961120605,-8.882157326,-0.3182454109
6.057089694,8.757730484,-8.903693199,0.2249253243
6.061844277,8.303094864,-9.145368576,0.9858429432
6.06659886,7.534998417,-9.566504478,1.746760488
6.071353444,6.587440968,-10.09053326,2.344966173
6.076107975,5.558526993,-10.79162979,2.62253356
6.080862558,4.658825874,-11.56451225,2.656033039
6.085617142,3.979264021,-12.34696484,2.517249346
6.090371725,3.601198196,-13.0456686,2.277967215
6.095126308,3.359523058,-13.67498112,2.196611166
6.099880892,3.160918713,-14.15833187,2.227717876
6.104635423,3.062813044,-14.57707596,2.263610125
6.109390006,2.933600664,-14.86899948,2.210968018
6.114144589,2.842673302,-15.04367638,2.232503414
6.118899173,2.74935317,-15.13938904,2.289931297
6.123653756,2.703889608,-15.15853119,2.452643156
6.128408339,2.620140791,-15.16092396,2.646461725
6.133162871,2.445464849,-15.04367638,2.904886723
6.137917454,2.112862349,-14.8713932,3.194418192
6.142672037,1.710868239,-14.58664703,3.464807272
6.147426621,1.289731383,-14.19422436,3.785445452
6.152181204,0.9643075466,-13.68694592,4.232903481
6.156935787,0.7633104324,-13.09352589,4.673182487
6.161690319,0.6556333899,-12.3924284,5.015356064
6.166444902,0.6628118753,-11.69372463,5.30728054
6.171199485,0.7872386575,-11.01416302,5.52981329
6.175954069,1.050449133,-10.47577763,5.587240696
6.180708652,1.512263894,-10.00917721,5.539384365
6.185463235,2.088934183,-9.635896683,5.460421085
6.190217767,2.629712105,-9.305686951,4.943571568
6.19497235,3.519842148,-8.92283535,-0.06221338734
6.199726933,6.738188744,-8.252845764,-17.17089462
6.204481517,7.494320393,-7.89870739,-15.55334759
6.2092361,7.168896675,-7.73599577,-12.4498558
6.213990683,7.159325123,-7.819744587,-9.535398483
6.218745214,7.111468792,-7.89870739,-6.685546398
6.223499798,6.443871498,-8.013563156,-4.299902439
6.228254381,5.426921844,-8.185846329,-2.349751949
6.233008964,4.225724697,-8.472985268,-0.6221339107
6.237763548,3.235096216,-8.877371788,0.5407779217
6.242518131,2.644068956,-9.281759262,1.043270707
6.247272714,2.416750908,-9.602396965,1.232303619
6.252027298,2.325823545,-9.961320877,1.229910851
6.256781829,2.285145521,-10.09771156,1.349551916
6.261536412,2.172683001,-10.18385315,1.756331801
6.266290996,2.081755638,-10.24606609,2.385644197
6.271045579,1.8855443,-10.28435135,3.136990547
6.275800162,1.624726534,-10.35135078,3.859622955
6.280554746,1.301695466,-10.33699417,4.357329845
6.285309329,0.8781659007,-10.12403297,4.161118507
6.29006386,0.5216353536,-9.879964828,3.421736479
6.294818444,0.01674975827,-9.54257679,2.54117775
6.299573027,-0.5742774606,-9.221938133,1.840080619
6.30432761,-1.100698471,-8.810373306,1.588834286
6.309082194,-1.373480201,-8.405985832,1.880758643
6.313836777,-1.275374413,-7.97767067,2.423929453
6.31859136,-1.11984098,-7.4010005,2.888136864
6.323345892,-0.8542376757,-6.73100996,3.048455954
6.328100475,-0.3708875179,-6.151947021,2.845066071
6.332855058,0.2033899277,-5.620740414,2.127219439
6.337609642,0.8183453679,-5.2737813,1.067198873
6.342364225,1.538584948,-5.123033047,-0.03110669367
6.347118808,2.177468538,-5.161318302,-0.9978070259
6.351873339,2.548356056,-5.249852657,-1.600798368
6.356627923,2.562713146,-5.40060091,-1.794616938
6.361382506,2.294716835,-5.50109911,-1.686939955
6.366137089,1.926222205,-5.522634506,-1.313659668
6.370891673,1.50269258,-5.50109911,-0.756131947
6.375646256,1.158126116,-5.472385406,-0.1148554832
6.380400839,0.9092726111,-5.453242779,0.4953143001
6.385155423,0.8853443861,-5.417350292,1.045663476
6.389909954,1.000199914,-5.388636589,1.500299811
6.394664537,1.272981644,-5.352744102,1.672582984
6.399419121,1.59840548,-5.345565796,1.770688772
6.404173704,1.919043779,-5.350351334,1.823330879
6.408928287,2.143969059,-5.37188673,1.899901152
6.413682871,2.165504456,-5.446064472,2.067398787
6.418437454,1.976471543,-5.596812248,2.297109842
6.423192037,1.749153376,-5.673382282,2.49332118
6.427946569,1.658226132,-5.776273727,2.730210543
6.432701152,1.751546144,-5.72123909,2.95752883
6.437455735,1.99800694,-5.666203976,3.134597778
6.442210319,2.325823545,-5.637490273,3.37387991
6.446964902,2.553141832,-5.489135265,3.457628727
6.451719485,2.627319336,-5.29292345,3.428914785
6.456474017,2.646461725,-5.070391178,3.323630571
6.461228652,2.663211584,-4.931607246,3.270988464
6.465983183,2.682354212,-4.711467743,3.314059258
6.470737767,2.550748825,-4.433900356,3.318845034
6.47549235,2.438286304,-4.264009953,3.381058455
6.480246933,2.404786825,-4.168296814,3.359523058
6.485001517,2.294716835,-4.010370731,3.08434844
6.4897561,2.065006018,-3.88594389,2.682354212
6.494510683,1.686939955,-3.773481369,2.203789711
6.499265267,1.251446247,-3.689732552,1.8855443
6.504019798,0.8015955687,-3.680161238,2.239681959
6.508774381,0.5168496966,-3.785445452,3.194418192
6.513528964,0.4953143001,-3.864408493,4.213760853
6.518283548,0.6723831892,-3.869194269,4.740181446
6.523038131,0.94277215,-3.871587038,4.610969067
6.527792714,1.416550994,-3.998406649,3.905086517
6.532547298,2.627319336,-4.417150497,3.706482172
6.537301829,4.208974838,-5.082355499,4.491328239
6.542056412,5.548955917,-6.003592014,5.201996326
6.546810996,6.551548481,-7.137789726,5.271388054
6.551565579,7.290930748,-8.578269005,4.797609329
6.556320162,7.76949501,-10.29631615,4.072584152
6.561074746,8.257631302,-12.28714466,3.440878868
6.565829329,8.712266922,-14.42872047,3.37387991
6.570583912,9.300901413,-16.64925957,3.682554007
6.575338496,10.02592659,-18.8243351,4.158725739
6.580093079,10.78445148,-20.85584259,4.560719967
6.58484761,11.46162033,-22.75335121,4.677968502
6.589602194,12.16271782,-24.29193497,4.338187218
6.594356777,13.01456261,-25.25863647,3.572484255
6.59911136,14.32582951,-25.12224579,2.258824587
6.603865944,15.27099419,-23.88994217,0.3708875179
6.608620527,15.35235023,-21.18605232,-1.672582984
6.61337511,14.19422436,-17.61356735,-3.046063185
6.618129694,12.5120697,-14.18225956,-3.333201885
6.622884277,10.68156052,-11.28455162,-2.880958557
6.627638808,8.965906143,-8.992227554,-2.103291035
6.632393392,7.448856831,-7.161718369,-1.363908887
6.637147975,6.130411625,-5.737988472,-0.7154539824
6.641902558,4.972285271,-4.60379076,-0.1938186288
6.646657142,3.986442566,-3.742374659,0.2536391914
6.651411725,3.067598581,-3.091526747,0.5838487148
6.656166308,2.294716835,-2.646461725,0.8494520187
6.660920892,1.684547186,-2.464607239,0.8925228715
6.665675475,1.320838094,-2.560320139,0.8518448472
6.670430006,1.253839016,-2.830709219,0.8685946465
6.675184589,1.301695466,-3.223132133,0.7657032609
6.679939173,1.596012712,-3.768695593,0.6388836503
6.684693756,1.909472466,-4.352544308,0.5431707501
6.689448339,2.194218397,-5.027320385,0.3637090325
6.694202923,2.411965132,-5.809773445,0.1363908947
6.698957506,2.565105915,-6.625725746,-0.08374879509
6.703712089,2.632104874,-7.420143127,-0.2081755698
6.708466673,2.699103832,-8.216953278,-0.2584248483
6.713221256,2.78285265,-9.013762474,-0.2679961324
6.717975787,2.821137905,-9.817750931,-0.2249253243
6.722730371,2.758924484,-10.55713367,-0.1435693651
6.727484954,2.823530674,-11.28455162,-0.05982056633
6.732239537,2.845066071,-11.96411324,0.07896314561
6.736994121,2.864208698,-12.66042423,0.2201396823
6.741748704,2.758924484,-13.24905872,0.4307080805
6.746503287,2.629712105,-13.7730875,0.7417750359
6.751257871,2.335394859,-14.0937252,1.083948612
6.756012454,1.907079697,-14.14158154,1.447657704
6.760767037,1.47158587,-13.93101311,1.830509305
6.765521621,1.095912814,-13.41655636,2.14157629
6.770276152,1.071984529,-12.55992603,2.244467735
6.775030735,1.473978758,-11.55733299,2.160718918
6.779785319,1.952543259,-10.54995537,2.036292076
6.784539902,2.222932339,-9.657432556,1.80658114
6.789294485,2.292324066,-8.84387207,1.619940877
6.794049069,2.249253273,-8.152346611,1.426122308
6.798803652,2.155933142,-7.580461979,1.227517962
6.803558235,1.993221283,-7.106683254,1.064806104
6.808312819,1.85443759,-6.709474564,0.9188438654
6.813067402,1.706082582,-6.405586243,0.784845829
6.817821985,1.581655741,-6.123233318,0.7058826685
6.822576517,1.452443361,-5.917450428,0.6532405615
6.8273311,1.325623751,-5.77148819,0.6604190469
6.832085683,1.222732425,-5.639883041,0.6843472719
6.836840267,1.136590719,-5.632704735,0.7345965505
6.84159485,1.148554921,-5.666203976,0.8111668825
6.846349433,1.160519004,-5.735595703,0.9140582681
6.851104017,1.191625714,-5.850451469,1.091127157
6.8558586,1.270588875,-6.020341873,1.253839016
6.860613183,1.397408366,-6.264409542,1.440479279
6.865367767,1.596012712,-6.601797581,1.667797327
6.870122298,1.828116536,-6.92243576,1.907079697
6.874876881,2.069791555,-7.180860519,2.148754835
6.879631464,2.318645239,-7.467999458,2.299502611
6.884386048,2.529213428,-7.757531166,2.416750908
6.889140631,2.670390129,-8.011170387,2.574677229
6.893895214,2.787638426,-8.252845764,2.773281336
6.898649798,2.955136061,-8.417949677,3.048455954
6.903404381,3.230310678,-8.530412674,3.59641242
6.908158964,3.424129248,-8.566305161,4.558327198
6.912913548,3.46959281,-8.595019341,5.331208706
6.917668079,3.412165165,-8.731410027,5.826523304
6.922422714,3.43609333,-8.807980537,6.216553211
6.927177246,3.701696634,-8.731410027,6.226124287
6.931931829,3.88594389,-8.685946465,6.056233883
6.936686412,3.940979004,-8.681160927,5.814558983
6.941440996,3.83569479,-8.788837433,5.441278458
6.946195579,3.605983734,-8.961120605,5.012963295
6.950950162,3.424129248,-9.085547447,4.498506546
6.955704746,3.30927372,-9.195617676,3.926621914
6.960459329,3.292523861,-9.353543282,3.342773199
6.965213912,3.330809116,-9.595218658,2.81395936
6.969968496,3.345165968,-9.884750366,2.340180635
6.974723079,3.414557934,-10.18863869,1.892722726
6.979477662,3.397808075,-10.52363396,1.538584948
6.984232194,3.37387991,-10.9184494,1.275374413
6.988986777,3.333201885,-11.301301,1.079162955
6.99374136,3.18006134,-11.75593758,0.6843472719
6.998495944,3.048455954,-12.32782269,-0.1770688742
7.003250527,2.634497643,-13.03131199,-3.259024382
7.00800511,2.416750908,-13.72283745,-6.039484501
7.012759694,2.641676188,-13.88076401,-5.702096462
7.017514277,3.074777126,-13.72044468,-3.967299938
7.02226886,3.471985579,-13.50269794,-2.074577332
7.027023444,3.871587038,-13.26580906,-0.5120640397
7.031778027,4.235296249,-13.11745358,0.7896314859
7.03653261,4.68275404,-13.08156109,1.880758643
7.041287194,5.05124855,-13.16052437,2.486142635
7.046041725,5.551348686,-13.26820183,2.440679073
7.050796308,6.16869688,-13.26580906,1.792224169
7.055550892,6.941578388,-13.10548973,0.6675975323
7.060305475,7.79820919,-12.82313633,-0.5575276613
7.065060058,8.621339798,-12.51924801,-1.639083505
7.069814642,9.238688469,-12.19382381,-2.457428932
7.074569225,9.686145782,-11.82532978,-2.837887764
7.079323808,9.973284721,-11.41137123,-2.778067112
7.084078392,10.07378292,-11.02851963,-2.388036966
7.088832975,10.04267693,-10.68873882,-1.887937069
7.093587558,9.994820595,-10.44945621,-1.452443361
7.098342142,9.777072906,-10.30110168,-1.122233868
7.103096725,9.439684868,-10.19342422,-0.8542376757
7.107851308,9.198010445,-10.10728264,-0.756131947
7.112605839,8.937192917,-10.07617569,-0.7752745152
7.117360423,8.681160927,-10.04506969,-0.8494520187
7.122115006,8.501698494,-9.999606133,-0.9643075466
7.126869589,8.298309326,-9.937392235,-1.071984529
7.131624173,8.228917122,-9.911071777,-1.136590719
7.136378756,8.161917686,-9.884750366,-1.014556766
7.141133339,8.188239098,-9.958928108,-0.7896314859
7.145887923,8.240880966,-10.16231823,-0.35174492
7.150642506,8.33180809,-10.55713367,0.2321037948
7.155397089,8.231309891,-11.05244732,0.8925228715
7.160151673,7.771887779,-11.55972576,1.545763373
7.164906256,6.836294174,-11.95454216,2.112862349
7.169660839,5.690132141,-12.33739376,2.474178553
7.174415371,4.658825874,-12.64367485,2.691925526
7.179169954,3.85244441,-12.9379921,2.756531715
7.183924537,3.333201885,-13.28973675,2.62253356
7.188679121,3.00538516,-13.6534462,2.364108801
7.193433704,2.723032236,-13.96929836,2.227717876
7.198188287,2.431107759,-14.27557945,2.024327993
7.202942871,2.194218397,-14.51725483,1.830509305
7.207697454,1.897508383,-14.64885998,1.631905079
7.212452037,1.641476393,-14.66561031,1.45483613
7.217206621,1.35912323,-14.60339642,1.445264935
7.221961204,1.112662554,-14.47418404,1.576870084
7.226715787,0.8781659007,-14.29232979,1.801795483
7.231470371,0.8231309652,-14.0865469,2.143969059
7.236224954,0.7896314859,-13.81615829,2.605783939
7.240979537,0.7226324677,-13.40219975,3.136990547
7.245734121,0.6723831892,-12.8949213,3.617947817
7.250488652,0.6125625968,-12.39003563,4.194618225
7.255243235,0.5694918036,-11.75593758,4.855037212
7.259997819,0.6388836503,-11.08355427,5.438885689
7.264752402,0.9188438654,-10.3848505,5.891129494
7.269506985,1.29451704,-9.762716293,6.29790926
7.274261569,1.875972986,-9.241081238,6.642475605
7.279016152,2.440679073,-8.769695282,6.960721016
7.283770735,3.055634499,-8.415556908,7.24307394
7.288525319,3.615555048,-8.147561073,7.355536938
7.293279902,3.986442566,-8.05424118,7.073183537
7.298034485,4.168296814,-8.097311974,6.417550564
7.302789069,4.421936035,-8.173882484,5.139782906
7.307543652,5.19481802,-8.322237015,-0.4474578202
7.312298235,9.7196455,-8.561519623,-18.76212311
7.317052819,11.30369377,-8.681160927,-16.78804398
7.321807402,10.55474091,-8.566305161,-12.2416811
7.326561933,9.894321442,-8.537590981,-7.178467751
7.331316517,8.846264839,-8.523234367,-2.95752883
7.3360711,7.477570534,-8.568697929,-0.2153540403
7.340825683,6.082555294,-8.702695847,1.409372568
7.345580267,4.680361271,-8.963513374,2.170290232
7.35033485,3.443271875,-9.401400566,2.483749866
7.355089433,2.624926329,-9.882357597,2.608176708
7.359844017,2.177468538,-10.22692394,2.591426849
7.3645986,1.935793519,-10.66002464,2.524427891
7.369353183,1.777867198,-11.00459099,2.457428932
7.374107767,1.402194023,-11.31565857,2.579462767
7.37886235,0.9906286001,-11.61476135,2.742174864
7.383616933,0.5407779217,-11.89232826,2.854637384
7.388371517,0.01196411345,-12.05504036,2.806781054
7.3931261,-0.5312066078,-12.06221867,2.677568436
7.397880683,-0.94277215,-11.86361504,2.529213428
7.402635214,-1.284945726,-11.37069321,2.349751949
7.407389798,-1.50269258,-10.72702408,2.20618248
7.412144381,-1.473978758,-9.997213364,2.175075769
7.416898964,-1.261017561,-9.135796547,2.187039852
7.421653548,-0.7824530005,-8.305487633,2.234896421
7.426408131,-0.313459754,-7.467999458,2.266003132
7.431162714,0.2081755698,-6.652047157,2.177468538
7.435917298,0.7752745152,-5.929414749,1.907079697
7.440671881,1.517049551,-5.312066078,1.643869162
7.445426464,2.380858421,-4.852644444,1.34237349
7.450181048,3.177668571,-4.503292084,0.9499505758
7.454935631,3.816552162,-4.309473515,0.4857429862
7.459690214,4.244867325,-4.252045631,0.02632104978
7.464444798,4.26879549,-4.34775877,-0.2536391914
7.469199381,4.089334011,-4.541577339,-0.404387027
7.473953964,3.826123476,-4.733003139,-0.4761717021
7.478708548,3.450450182,-4.922036171,-0.5527420044
7.483463079,3.158525944,-5.094319344,-0.5647061467
7.488217662,2.950350285,-5.223531723,-0.4474578202
7.492972246,2.739781857,-5.331208706,-0.2656033039
7.497726829,2.665604353,-5.431707382,-0.007178467698
7.502481412,2.660818815,-5.551348686,0.313459754
7.507235996,2.694318295,-5.639883041,0.6652047038
7.511990579,2.694318295,-5.699703693,0.9762716293
7.516745162,2.734996319,-5.749952793,1.306481123
7.521499746,2.644068956,-5.776273727,1.622333765
7.526254329,2.440679073,-5.759523869,1.95015049
7.531008912,2.258824587,-5.723631859,2.208575249
7.535763496,2.017149448,-5.726024628,2.543570518
7.540518079,1.868794441,-5.69252491,2.861815929
7.545272662,1.770688772,-5.618347645,3.141776085
7.550027246,1.751546144,-5.572884083,3.369094372
7.554781829,1.816152334,-5.438885689,3.584448338
7.559536412,1.890329838,-5.297709465,3.768695593
7.564290944,1.866401672,-5.091926575,3.790230989
7.569045579,1.883151412,-4.878965378,3.840480328
7.57380011,1.95015049,-4.68275404,3.737588882
7.578554694,1.990828395,-4.481756687,3.421736479
7.583309277,2.021935225,-4.278367043,3.017349243
7.58806386,2.14157629,-4.101297855,2.352144718
7.592818444,2.385644197,-3.83569479,1.596012712
7.597573027,2.751745939,-3.522234917,0.9834501147
7.60232761,3.249453068,-3.318845034,0.5886343718
7.607082194,3.7256248,-3.259024382,0.433100909
7.611836777,4.213760853,-3.232703447,0.5814558864
7.61659136,4.697110653,-3.189632654,1.004985452
7.621345944,5.032105923,-3.136990547,1.555334687
7.626100527,5.347958565,-3.03888464,2.151147604
7.63085511,5.589633465,-2.962314367,2.823530674
7.635609694,5.788238049,-2.907279491,3.493520975
7.640364277,5.936593056,-2.847458839,4.039084435
7.64511886,6.094519138,-2.792423964,4.457828522
7.649873444,6.16869688,-2.739781857,4.694717884
7.654627975,6.16869688,-2.787638426,4.735395908
7.659382558,6.166304111,-2.845066071,4.656432629
7.664137142,6.101697922,-2.962314367,4.431507587
7.668891725,6.120840549,-3.168097258,4.113262177
7.673646308,6.099305153,-3.445664644,3.766302824
7.678400892,6.072983742,-3.8213377,3.321237803
7.683155475,5.922235966,-4.223331928,2.766103029
7.687910058,5.64227581,-4.601397991,2.208575249
7.692664642,5.333601475,-5.01774931,1.804188251
7.697419225,5.187639713,-5.455635548,1.476371527
7.702173808,5.40060091,-5.917450428,1.093519926
7.706928392,6.092126369,-6.384050846,0.6364908218
7.711682975,6.908079147,-6.867401123,0.4474578202
7.716437558,7.731209755,-7.403393269,0.993021369
7.721192142,9.054440498,-7.939385414,3.158525944
7.725946725,10.55474091,-8.46819973,6.896114826
7.730701308,11.94497108,-9.382257462,10.62652493
7.735455892,13.3208437,-10.90887833,12.59821129
7.740210423,14.45025635,-12.97867012,11.88993549
7.744965006,15.31406498,-15.3475647,8.003992081
7.749719589,16.51765442,-18.13998795,2.124826431
7.754474173,17.61596107,-21.10948181,-2.873780012
7.759228756,17.90549278,-23.23191452,-3.696911097
7.763983339,17.1924305,-23.50230408,-0.9475577474
7.768737923,15.8931284,-22.23889351,2.23728919
7.773492506,14.38086414,-20.14038849,4.185046673
7.778247089,12.32303619,-16.93161392,4.807180882
7.783001673,10.01396275,-13.4285202,4.560719967
7.787756256,7.901100159,-10.30110168,3.938585997
7.792510839,6.070590973,-7.712067604,2.952743053
7.797265423,4.414757729,-5.666203976,1.533799291
7.802020006,2.912065268,-4.115654945,0.1004985496
7.806774589,1.586441398,-2.947957516,-1.002592683
7.811529173,0.7226324677,-2.275574446,-1.801795483
7.816283756,0.2536391914,-1.947757602,-2.421536446
7.821038339,0.2033899277,-1.90229404,-2.66799736
7.825792923,0.524028182,-2.132004976,-2.234896421
7.830547454,1.272981644,-2.620140791,-1.35912323
7.835302037,2.136790514,-3.27577424,-0.7178468108
7.840056621,2.787638426,-3.972085476,-0.4498506486
7.844811204,3.127419233,-4.649254322,-0.3254238665
7.849565787,3.223132133,-5.326423168,-0.1316052526
7.854320371,3.022135019,-6.049055576,0.1339980662
7.859074954,2.665604353,-6.845865726,0.4354937077
7.863829537,2.299502611,-7.666603565,0.7680960894
7.868584121,2.0769701,-8.480163574,1.107876897
7.873338704,1.840080619,-9.31525898,1.435693622
7.878093287,1.732403636,-10.17428207,1.562513232
7.882847871,1.596012712,-11.00219822,1.536192179
7.887602454,1.548156261,-11.72483063,1.481157184
7.892357037,1.521835208,-12.3421793,1.45483613
7.897111621,1.529013634,-12.86142159,1.557727575
7.901866204,1.476371527,-13.20120239,1.715653777
7.906620787,1.426122308,-13.33998585,1.868794441
7.911375371,1.284945726,-13.20598793,1.969292998
7.916129954,1.076770186,-12.86381435,2.04586339
