Time (s),Acceleration x (m/s^2),Acceleration y (m/s^2),Acceleration z (m/s^2)
6.000472701,0.47299167476516835,-1.0705065881831162,-0.337777898161743
6.005472701,-0.6363828233600592,-0.07788030530691505,-2.20949899229743
6.010472034,-1.722507024301188,0.8988841130865918,-4.050152853526587
6.015472067,-2.7653795122918208,1.8417357915934405,-5.823553076081672
6.020471167,-3.746010140159155,2.733249576538005,-7.495253803034318
6.025472033,-4.646963482163215,3.5571326568500394,-9.033446350396163
6.030471999,-5.452861897227009,4.298708338894183,-10.409762578522427
6.035471999,-6.150830056726748,4.945359180731197,-11.59996026316863
6.040471999,-6.730864189614656,5.486912412759972,-12.584470922143097
6.045472032,-7.186111467866954,5.915952230979624,-13.348796404987029
6.050472032,-7.513047861147863,6.228046065419929,-13.88374670556065
6.055472032,-7.711546345634069,6.421875135267633,-14.185517569107189
6.060472032,-7.784831426933776,6.499263293849846,-14.25561224707057
6.065472032,-7.739320356807019,6.465102113705737,-14.100616987259881
6.070472032,-7.584355977550455,6.327174145777574,-13.731844374802886
6.075471998,-7.331840582836068,6.095880116796445,-13.16486233717698
6.080471998,-6.995784300582109,5.783879350547267,-12.418929398444783
6.085471998,-6.591785058189484,5.405655790656333,-11.516358553761199
6.090472031,-6.136459994390661,4.977024572311755,-10.481832923780305
6.095472031,-5.646850097466646,4.514596071611883,-9.341696181946611
6.100472031,-5.139820799263681,4.0352157135315565,-8.123239717122356
6.105471997,-4.6314812223534965,3.5553985273837423,-6.8540067287655155
6.110471963,-4.136643804572918,3.090777510783821,-5.561131105283125
6.115471929,-3.668344197934345,2.6555843316258967,-4.270726172877107
6.120471929,-3.2374387763033683,2.26217981650002,-3.007335388097334
6.125471929,-2.8522939262379916,1.920650114093638,-1.7934539426931202
6.130471962,-2.5185776869100267,1.6384824616883322,-0.6491272032033546
6.135471995,-2.239160401846889,1.4203321967429585,0.408370947705829
6.140472028,-2.014126998276641,1.2678901058005403,1.3647793547258533
6.145472028,-1.840899458460405,1.1798564336860327,2.209012068955943
6.150472028,-1.714464112492087,1.1520249146423296,2.9332454258215828
6.155471994,-1.6276946636272458,1.1774770514085204,3.532934312299885
6.16047266,-1.5717584360234325,1.246883575275259,4.006762955152481
6.16547266,-1.5365902779479723,1.3489065947404124,4.356535855294429
6.170473593,-1.5114159243633958,1.4706924229945246,4.587014417067238
6.175473593,-1.4853044931990758,1.5984415278691222,4.7057044870793145
6.180473593,-1.4477282481714826,1.7180385629473964,4.7225995563554095
6.185473559,-1.3891069097485713,1.8157221376012267,4.649883919958906
6.190473525,-1.3013137346289012,1.8787710180647421,4.501599734574612
6.195473491,-1.1781213899035383,1.896180991580729,4.293281736889894
6.200473491,-1.0155673574356707,1.8593048470026194,4.04156342240326
6.205473524,-0.8122212033901294,1.7624269976948623,3.763758752189144
6.21047289,-0.5693394731069691,1.6032443510204968,3.477423957052457
6.215472923,-0.29089811508607094,1.383226245146948,3.1999047362750073
6.220472923,0.016502939865136915,1.107828728084713,2.947875081826603
6.225472923,0.34386327914145354,0.7865422027723092,2.7368750642075566
6.230472889,0.6801284480737697,0.43275650970840546,2.580856141448761
6.235472855,1.0126487786589977,0.06343380768648765,2.4917438273137402
6.240472855,1.3277348358105623,-0.30141298224825686,2.4790287875396335
6.245472888,1.6112889131924626,-0.6394300842700538,2.54939851130154
6.250472921,1.8494878681946063,-0.9268060815603931,2.706422483848516
6.255472921,2.0294892938358555,-1.1393041385415257,2.9503040710600312
6.260472921,2.1401307356305845,-1.2534097904782207,3.277711887199905
6.265472921,2.172590491236529,-1.2475522735672588,3.6817020694764846
6.270472921,2.1209785872493114,-1.103349835400876,4.1517406062991595
6.275472921,1.9828279133791509,-0.8068235271422419,4.673831859766928
6.280472887,1.7594582812853772,-0.34952019995069666,5.230756050641922
6.285472887,1.4561903606290363,0.27051565273410366,5.802415115929586
6.290472887,1.0823919166302651,1.0479795132033065,6.366283240183831
6.29547292,0.6513453122239024,1.969806806162573,6.897955528569406
6.30047292,0.17993255550685497,3.014979372614445,7.371785632047911
6.30547292,-0.3118580399988628,4.15467091521684,7.761600556416406
6.310472886,-0.8015915633432444,5.3527497961036685,8.041478357288728
6.315472886,-1.26519274715931,6.566641809560514,8.186571961113238
6.320472886,-1.6778715303538554,7.748538896781935,8.173959990412357
6.325472919,-2.0151341109600844,8.846923010417227,7.983503243822397
6.330472919,-2.253840111265851,9.808358244899324,7.598683433646062
6.335472919,-2.3732623060560427,10.579489656506537,7.007398988074892
6.340472919,-2.3561028335823506,11.10917458335108,6.202691292274608
6.345472919,-2.1894191329830752,11.350662354814938,5.183373820809353
6.350472919,-1.865414188425328,11.263731591294455,3.954536382432389
6.355472885,-1.3820490990220864,10.81669128505708,2.5278973525294726
6.360473518,-0.7434415453169926,9.988152854156308,0.9219785018067477
6.365473518,0.03997869257415031,8.76848556728534,-0.8379199891070938
6.370473551,0.9515765745540213,7.160877177457208,-2.7199623913622095
6.375473584,1.9688894086747102,5.181935119744103,-4.6862504663088025
6.380473584,3.064271472093283,2.861780866370847,-6.6935318475661765
6.385473584,4.205789049251664,0.24361043146583095,-8.694140566199613
6.39047355,5.35833635803611,-2.617283178879726,-10.637157153027589
6.395473516,6.484930454537297,-5.655005509556884,-12.469765726859375
6.400473482,7.548132079793967,-8.795029512949238,-14.138775237742566
6.405473482,8.511530274718375,-11.956569325258545,-15.592262131287422
6.410472882,9.341222195941164,-15.0552691127063,-16.781282770520853
6.415472915,10.007216641770713,-18.006099317297803,-17.661596662809757
6.420472948,10.484690952912487,-20.726339728747565,-18.195336499443865
6.425472281,10.755036537719995,-23.138521853830767,-18.352558680575438
6.430471614,10.806638232448673,-25.17320267552527,-18.11260862064649
6.435470914,10.635346511436486,-26.77144822953174,-17.46523876314267
6.440470247,10.2446182412532,-27.886918127239213,-16.411423772820662
6.445469347,9.645319950261946,-28.487460463635273,-14.963826593723379
6.45046938,8.855206051023648,-28.55614938790251,-13.146880648117875
6.455468913,7.898101747257695,-28.09172367174439,-10.996467022072324
6.460468013,6.802835325235787,-27.108412437876037,-8.559180600733448
6.465467313,5.601976317663093,-25.6351623312787,-5.891195295514488
6.470466379,4.330444107336694,-23.714307412455057,-3.0567552115777548
6.475465445,3.0240556827332483,-21.39974763299439,-0.1263352513141465
6.480464545,1.7180815071103437,-18.7547228009213,2.8254693923408287
6.485463878,0.445875072866583,-15.849285551474216,5.722250813703989
6.490463911,-0.7623648985596447,-12.757588321795007,8.488206630538665
6.495430877,-1.8806499465310453,-9.555105186543836,11.050573488283293
6.500397577,-2.888036686980537,-6.315909344140064,13.341976384814984
6.505364243,-3.7692150206702806,-3.11012106561212,15.302596610870616
6.510330243,-4.5148363489337875,-0.0016294957852820366,16.882070196803852
6.515296876,-5.121580175084042,2.953824269975845,18.041044102246545
6.520263542,-5.591967894792853,5.710134757088309,18.75233730527006
6.525230175,-5.933941500854198,8.231843750545677,19.001675983110022
6.530195975,-6.160232428302635,10.494651892557693,18.787993422020328
6.535161975,-6.287552005576863,12.485428508952932,18.12330391429592
6.540128641,-6.335640088044314,14.20173926177022,17.03217442666232
6.545095774,-6.326212484542831,15.650930681927894,15.550827996122303
6.55006244,-6.281850695750577,16.84882759287741,13.725919209353286
6.555029106,-6.22487909410397,17.8181135065401,11.613026051877604
6.559996372,-6.1762747264746425,18.586475093526218,9.274905598754074
6.564963038,-6.154653196808253,19.18459973845871,6.779564843666334
6.569929704,-6.175370586151008,19.644119872331398,4.198202676156202
6.57489707,-6.249776341259479,19.99559901312142,1.6030837166852197
6.579864403,-6.384645879070712,20.26665202525241,-0.9345918837295646
6.584831736,-6.581814653533378,20.48028593125249,-3.3467574322415437
6.589799036,-6.838027873522912,20.653537765717893,-5.570423750700054
6.594766569,-7.145012146083357,20.79647273862449,-7.549438769477018
6.599733235,-7.489767225451348,20.911589838694496,-9.236009733609624
6.604700401,-7.855067956374334,20.993663582423252,-10.591943730724408
6.609667334,-8.220158610538961,21.030030653897814,-11.589572449264281
6.614634,-8.561614353016328,21.001309532427594,-12.212338336356789
6.619601566,-8.854337789046848,20.882520773840014,-12.455031135426639
6.624569132,-9.07265268895076,20.64455631880094,-12.323675647548935
6.629536698,-9.191452324897908,20.255928945087756,-11.835083013143798
6.634504031,-9.187356611920352,19.68471859413607,-11.016088420048701
6.639470664,-9.03983062771165,18.90062152176153,-9.902507485129345
6.644470397,-8.732217248403913,17.8770016501156,-8.537851196646105
6.649470397,-8.252638683421809,16.592841544963555,-6.971844879299438
6.65447043,-7.594725658306995,15.034493280737719,-5.258800026020577
6.659471096,-6.7581388394779225,13.197137011550053,-3.455889259346964
6.664471096,-5.748854695074235,11.085867068151032,-1.6213746589152938
6.669471062,-4.579197132250106,8.71634142888921,0.1871611895011562
6.674471095,-3.2676066496922895,6.114949906122379,1.9145333549323929
6.679471995,-1.8381500164103457,3.318478624091425,3.509575359697057
6.684472695,-0.3197851743082714,0.3732724341485841,4.926617819137397
6.689472695,1.2545923683665188,-2.666078268112894,6.126782483663938
6.694472228,2.84928451506771,-5.738475535286105,7.0790526384106185
6.699472228,4.427060223389635,-8.778403398638146,7.761085732182403
6.704472228,5.950505425946078,-11.718276384463168,8.159740893402336
6.709472228,7.3833936112575955,-14.490939651594454,8.271302703594936
6.714472194,8.692015159026113,-17.032204099962335,8.101392944743488
6.71947216,9.84640456654322,-19.283296793478303,7.664573435428338
6.72447216,10.821409246185512,-21.1931106727612,6.983654804552869
6.729472193,11.597551481423304,-22.720147710465692,6.088737412459801
6.734472226,12.161645921503228,-23.834065809692397,5.016020994958407
6.739472226,12.507147897914304,-24.516760827247456,3.8064284505492685
6.744472226,12.63422189633373,-24.762939686035462,2.504096084133118
6.749472192,12.549533705498131,-24.580166918883933,1.1547872437019893
6.754472158,12.265783166946584,-23.9883933608276,-0.1957115434609003
6.759472791,11.801006325341874,-23.019000400672088,-1.5031531589827751
6.764473457,11.177685597042492,-21.71341484462526,-2.7262951867129157
6.76947349,10.421713996247197,-20.121367064623954,-3.8282168942074812
6.774473523,9.561264302932274,-18.298878128193344,-4.777443858250015
6.779473556,8.625616272595993,-16.30606980412944,-5.54884477767099
6.784473556,7.643994633018138,-14.204894755248175,-6.124274795703811
6.789290111,6.644467851097841,-12.05688312754046,-6.492950152362303
6.794290077,5.6529527461264655,-9.920996548225553,-6.6515497131464745
6.799290077,4.692363322332124,-7.851671797183688,-6.604049399089759
6.804290077,3.7819341016309926,-5.897124744809437,-6.361305345975604
6.809289443,2.936739199509412,-4.097971233917288,-5.940410380166591
6.814289443,2.167418855554386,-2.486206126570373,-5.363855815289303
6.819289443,1.4801155491452513,-1.0845654384350125,-4.658536418742539
6.824289409,0.876612616574887,0.09371998282694301,-3.8546405143985507
6.829289375,0.35465980764880334,1.04478678359369,-2.984469503296028
6.834289341,-0.09153721648114964,1.7736399569686148,-2.0812316081856226
6.839289341,-0.47069259977714817,2.29332818797884,-1.1778534704955406
6.844289341,-0.7937150831850861,2.623841153600345,-0.3058505022492716
6.849289374,-1.0729188732947204,2.7907854606456772,0.5057071820154714
6.854289407,-1.3212091081869997,2.823902613186266,1.2311016270649253
6.85928944,-1.5512803399770527,2.7554964557952886,1.8487211314977081
6.86428944,-1.7748647887818643,2.6188388917253462,2.341642674686986
6.86928944,-2.0020640004964947,2.4466213685083633,2.698030754003344
6.874289406,-2.2407931122608473,2.269515783588753,2.9113477295468373
6.879289406,-2.4963613836266805,2.114902292373919,2.980377571200036
6.884289406,-2.771206203208281,2.00581326950545,2.9090712441951068
6.889289439,-3.064790662061926,1.9601327007880445,2.706227663326418
6.894288572,-3.3736672467479782,1.9900789230357858,2.3850290492297295
6.899288572,-3.6917025286602683,2.1019862661310085,1.9624535257706466
6.904288572,-4.010450234911207,2.296388201447145,1.4585908112405161
6.909288572,-4.319653134467244,2.5683915114742715,0.895888781605097
6.914288572,-4.607848111577254,2.9083182378094325,0.2983594359407776
6.919288538,-4.863043928255959,3.302580214188841,-0.30922767049253336
6.924288538,-5.073437724235565,3.7347403095555465,-0.9021381123440689
6.929288538,-5.228134413764476,4.186705527551574,-1.4564277076727263
6.934288571,-5.317832890550558,4.639990232736598,-1.9496399432142406
6.939288571,-5.3354443521532335,5.076983358288645,-2.3614297259088297
6.944288571,-5.2766110341517445,5.482151799711065,-2.674101805374774
6.949288537,-5.14009805216505,5.843113546594035,-2.873056384281839
6.954288503,-4.928036663027512,6.151518587465896,-2.9471381403468313
6.959289136,-4.646003804517546,6.403683265954873,-2.8888879199697746
6.964289136,-4.302929972351357,6.600934470853551,-2.694698665895915
6.969289136,-3.9108350741233457,6.749633573253481,-2.364878790385748
6.974289169,-3.484399613899526,6.860865981158688,-1.9036273729636901
6.979289202,-3.0403861645213084,6.949799958743639,-1.3189264197804538
6.984289235,-2.5969333107042716,7.034737113350933,-0.6223560711323562
6.989289235,-2.172750787604146,7.135895645108453,0.1711608905010771
6.994289235,-1.7862500585455525,7.273984924512789,1.0436786053943854
6.999289201,-1.454648739295352,7.468645050920072,1.9746050632032455
7.004289201,-1.1930898089209678,7.736836671271418,2.94112975836839
7.009288534,-1.0138172778259227,8.091273569626132,3.9186956413598755
7.014288567,-0.9254488599659012,8.538992656611107,4.881509201585749
7.019288567,-0.9323832544336952,9.080152600308802,5.803082777812837
7.024288567,-1.0343749627082826,9.707143474440517,6.6568033350738185
7.029288533,-1.226303270750966,10.40407591474272,7.416521859881791
7.034288499,-1.4981542930752483,11.14670017302189,8.057157123736244
7.039288465,-1.8352260785400618,11.902784169033023,8.55530680531439
7.044289331,-2.2185570668966337,12.632956318486094,8.889857840164293
7.049289364,-2.6255680741866336,13.291994770153497,9.042586417000104
7.054289397,-3.0308979221013326,13.83052092284013,8.998736331879982
7.05928943,-3.4074032683056803,14.197032874916198,8.747562544804694
7.06428943,-3.7272845838779283,14.34019486487231,8.282824882154987
7.06928943,-3.9632929703723074,14.21128275591993,7.603215047868716
7.074289396,-4.089966977551947,13.766674020053342,6.71269863822046
7.079289362,-4.084845084092542,12.970264131572238,5.62075292563189
7.084289328,-3.9295982846094186,11.79569022903702,4.342481031456365
7.089289328,-3.6110284599500138,10.228247562892191,2.8985839859032407
7.094289328,-3.1218819799071107,8.266394582584192,1.3151742796510575
7.099288994,-2.4614342873532427,5.922758245166007,-0.37658201288398113
7.104289027,-1.6358099247917282,3.2245717029839724,-2.141002558803668
7.10928906,-0.6580133618814448,0.21350115707300515,-3.9386072813427115
7.11428906,0.4523412783540674,-3.05515368061269,-5.727012301559209
7.11928906,1.6695993812167287,-6.5138716188628605,-7.461985093322602
7.124289026,2.9629167719715785,-10.084890761310007,-9.098637641535417
7.129289026,4.297360319767257,-13.682685539957536,-10.592725386906958
7.134289026,5.6352119019241895,-17.21684150603647,-11.902011368689552
7.139289059,6.937416918736358,-20.59520763453782,-12.987647932383574
7.144289059,8.165108780729582,-23.72718984889073,-13.815523294208111
7.149289059,9.281134742947643,-26.52704024519688,-14.357517644967054
7.154289025,10.25150696654165,-28.916994823263703,-14.592613635544737
7.159289658,11.046706235777123,-30.830118654872418,-14.507809123206412
7.164289624,11.642774327911448,-32.212731044006546,-14.098785913673872
7.169289624,12.022144028350722,-33.02630355769479,-13.370296708982677
7.174289657,12.174172092854223,-33.24874959693958,-12.33624323223031
7.17928969,12.09535861920255,-32.875053871177194,-11.019431080332819
7.184289723,11.789254718095815,-31.91722197676444,-9.451000672229803
7.189289723,11.266077593536576,-30.403562467000974,-7.669548059764889
7.194289723,10.542066956164668,-28.377344656422153,-5.71996367957973
7.199289689,9.638628241177043,-25.894903444069218,-3.6520306914001446
7.204289689,8.58131587839197,-23.023286431407044,-1.5188367523126798
7.209289022,7.398713692617231,-19.837557576870086,0.6249366608644862
7.214289055,6.121269538851214,-16.417884848715058,2.7247755409770025
7.219289088,4.780137950757663,-12.846546269927169,4.72806898229339
7.224289088,3.406078674275523,-9.204988958800445,6.585742826786025
7.229289088,2.0284514951677086,-5.571069014778657,8.25372047219162
7.234289088,0.6743397759733779,-2.016586634594971,9.694151566485287
7.239289088,-0.6321727072547179,1.394788325973078,10.876366264267126
7.244289088,-1.8705544563298524,4.609128354332793,11.777532907142456
7.249289421,-3.024198369178683,7.583351269002904,12.383017476403388
7.254289421,-4.080610011910113,10.285793538359783,12.68646113586217
7.259289421,-5.031415372587549,12.696258392892382,12.689605639722028
7.264289454,-5.872197717136688,14.805566498205351,12.401904394191932
7.269289454,-6.602179013149659,16.614657633396284,11.839959551103146
7.274289454,-7.22376662683284,18.13330918740692,11.026823392496166
7.27928942,-7.741990487906793,19.378550827051715,9.99119664756297
7.28428942,-8.163859558307468,20.3728641317256,8.766548910421385
7.28928942,-8.497669177965353,21.142261336732517,7.39017899426871
7.294289453,-8.752292622321459,21.714338780096185,5.902227784008715
7.299289453,-8.936490837013574,22.116398436855466,4.344654039495362
7.304289453,-9.0582736064581,22.373725203508013,2.7601845124329847
7.309289453,-9.124343216279701,22.508098479330474,1.1912526009076716
7.314289453,-9.139647984676573,22.53660428094832,-0.3210567058598518
7.319289453,-9.107068008391595,22.47079899685259,-1.7380346337293606
7.324289419,-9.02724932503487,22.31625850919848,-3.0243259162505343
7.329289419,-8.898595705585599,22.072527514485472,-4.148831156147158
7.334289419,-8.717419752254262,21.73346430553471,-5.085509889552295
7.339289452,-8.478247199963437,21.287956929501174,-5.814061186296458
7.344289485,-8.174260631339136,20.72096840739471,-6.320460845832622
7.349289485,-7.797861543570392,20.014852447128245,-6.597337319076759
7.354289451,-7.341323163881848,19.150867585100578,-6.644172154929643
7.359290084,-6.7975008902001965,18.1108076172273,-6.467314764616317
7.36429005,-6.160563015383061,16.878660043757552,-6.079805420472215
7.369290016,-5.4267017568426335,15.442202383999211,-5.501004638158021
7.374290016,-4.594783821425313,13.794448746567532,-4.756031591463086
7.379290049,-3.6669009911895394,11.9348658949746,-3.875019198574943
7.384290082,-2.6487846201846,9.870288961875206,-2.892199136594479
7.389290115,-1.5500534618710435,7.615481491989315,-1.8448362617604825
7.394290115,-0.3842717467852391,5.193302016688547,-0.772038541436478
7.399290115,0.8311963862562485,2.63445910502395,0.28652469529914226
7.404290081,2.0755395483975314,-0.023142124957992085,1.2919570492738788
7.409289181,3.3250510928400603,-2.735437751622421,2.2074772821209003
7.414289181,4.5538613533313415,-5.4535823177917795,2.9997207871021945
7.419289214,5.7348202433115905,-8.125602402641377,3.639949304213016
7.424288547,6.840490751365421,-10.698247822230476,4.1051177193526085
7.429287647,7.84420617159685,-13.118950307150842,4.378749021552306
7.434286947,8.7211386780803,-15.337792822291235,4.4515734368268465
7.439286247,9.449324549031662,-17.309391447439754,4.321895807336688
