Time (s),Acceleration x (m/s^2),Acceleration y (m/s^2),Acceleration z (m/s^2)
9.001501383,0.1991376530010421,-0.6096858971886738,0.48254566400423254
9.006501416,0.14411398512768006,-0.545737247376308,0.45763494161680773
9.011501416,0.08914601581869834,-0.48438905023954,0.4352856896954667
9.016501416,0.035153009106693625,-0.4259532759531866,0.41613497168686897
9.021501382,-0.01697237233054913,-0.37065931913545624,0.40067155822315864
9.026501382,-0.06638409323533295,-0.31864078903365683,0.3892093942853264
9.031501382,-0.11230130615694849,-0.2699238320356792,0.381865802036061
9.036501415,-0.15402492802599932,-0.22441741757457762,0.37854524145528934
9.041501415,-0.19095178987152991,-0.18190598131537114,0.37892929969754763
9.046501415,-0.2225860130133742,-0.1420447737877467,0.3824734166009484
9.051500748,-0.24854737880923491,-0.10435820981191479,0.38841068393160044
9.056500748,-0.26857658377378435,-0.06824145356946826,0.3957628824718467
9.061500748,-0.28253739931662225,-0.0329654043763798,0.4033587421531307
9.066500714,-0.29041587640066774,0.002314830920467091,0.40985921888405813
9.071500714,-0.29231684175366757,0.03854797898437798,0.41378936774136055
9.076500714,-0.288458016921528,0.07677124464824477,0.4135761510329744
9.081500747,-0.2791621482223608,0.11809174376302771,0.4075912582759192
9.086500747,-0.26484755989974973,0.16366501012754806,0.3941977515805724
9.091500747,-0.24601753564647838,0.2146709706687933,0.3717991094469688
9.096500713,-0.22324890438776224,0.27228788987424474,0.3388890529000701
9.101500013,-0.19718016662548743,0.33766487386650107,0.29410042800584
9.106500013,-0.16849945413471587,0.4118935813716832,0.23625140971051709
9.111500046,-0.137932567665086,0.49597980742940323,0.16438739286108564
9.116500079,-0.10623128226649509,0.5908155910910958,0.07781713957735716
9.121500079,-0.0741620499289717,0.6971524618931858,-0.023857966823543304
9.126500079,-0.04249517162230891,0.8155763934829667,-0.1407223875739655
9.131500079,-0.011994464285283448,0.9464849852775643,-0.27253310802280256
9.136500079,0.01659258208380283,1.090067349362362,-0.41871470775122704
9.141500079,0.04254417796401336,1.2462871418255372,-0.5783627066254539
9.146500045,0.06517316697391622,1.4148691451695772,-0.7502548146540401
9.151500945,0.08383555089283876,1.595289778999394,-0.9328695017347034
9.156500945,0.09793864065104214,1.786771884834404,-1.1244111522034193
9.161500978,0.10694885664511601,1.9882840908894024,-1.3228409863040653
9.166500978,0.11039917674204873,2.1985450081797904,-1.5259129064691415
9.171500978,0.10789619399622746,2.4160324372465607,-1.7312134328836537
9.176500944,0.09912670747777519,2.6389976744874755,-1.9362048979358082
9.18150091,0.08386373715636085,2.8654848988997723,-2.1382710533407816
9.186500876,0.06197183127934177,3.093355495076205,-2.334764206651446
9.191500876,0.03341152187606947,3.320317029808308,-2.523052957826509
9.196500909,-0.0017572206305048646,3.5439564547040585,-2.7005695670918293
9.201501609,-0.04337268014113501,3.7617769658503364,-2.864855966796326
9.206501642,-0.09117037147186433,3.971237823412666,-3.0136074432412836
9.211501642,-0.14478342043701822,4.169796325719639,-3.144713064038301
9.216501642,-0.2037444462933641,4.354951046949606,-3.2562920087885563
9.221501608,-0.2674890279229992,4.52428538575187,-3.346725067384578
9.226501574,-0.3353608280807283,4.6755104334730015,-3.4146806940580876
9.231501574,-0.40661845404954294,4.806506154928029,-3.4591351432463013
9.236501607,-0.48044413841004036,4.915359884000683,-3.4793863626935067
9.24150164,-0.5559543133689024,5.000401175720333,-3.475061474174576
9.24650164,-0.6322121103069043,5.060232130966254,-3.4461178250377933
9.251502306,-0.7082417360719885,5.093752421109671,-3.3928377385629402
9.256502272,-0.783044564629121,5.100178384072524,-3.3158172263083574
9.261502238,-0.8556166525255038,5.079055732962682,-3.215949052427627
9.266502204,-0.9249672583732205,5.030265604525029,-3.094400659179716
9.271502204,-0.9901378367429924,4.9540238680267805,-2.9525875727758075
9.276502237,-1.0502208974098266,4.85087380769602,-2.792143005257445
9.28150227,-1.1043780803869683,4.7216724764737865,-2.614884446420816
9.286502303,-1.1518568009309857,4.567571189572381,-2.422778095454683
9.291502303,-1.1920048662492528,4.389990777738007,-2.217902011876981
9.296502303,-1.2242825501843968,4.190592347505629,-2.0024088684999652
9.301501369,-1.2482717234478455,3.9712443954955226,-1.7784891664246296
9.306501369,-1.2636817640721922,3.733987193544693,-1.5483357253819487
9.311501369,-1.2703521048575859,3.480995399827586,-1.3141101937171196
9.316501402,-1.268251402288231,3.2145398575540476,-1.0779122314119454
9.321501402,-1.2574734282150957,2.9369495176968603,-0.841751907000585
9.326501402,-1.2382298877731848,2.650574367092173,-0.6075257176171739
9.331501402,-1.2108404521213203,2.357750161353995,-0.37699649720390993
9.336501402,-1.1757203616361138,2.0607656581634806,-0.15177733027806115
9.341501402,-1.1333660058595465,1.7618329266787658,0.06668055330942023
9.346501368,-1.084338925591362,1.4630611795583357,0.277096056016958
9.351501334,-1.0292487162011028,1.1664344413355585,0.47836292513619216
9.356501334,-0.9687353441786207,0.8737932350897477,0.6695512450277372
9.361501367,-0.9034514217844215,0.5868203415324076,0.8499061026746493
9.3665014,-0.8340450126332498,0.3070305636073522,1.0188438313351256
9.3715014,-0.7611435545568531,0.03576431964082601,1.1759462121703983
9.3765014,-0.685339473979733,-0.22581520542393801,1.3209529603747519
9.381501366,-0.6071780201464477,-0.4767216923664888,1.4537527525780585
9.386501366,-0.5271477658228886,-0.7161424901381387,1.5743729799503476
9.391501366,-0.44567410808299984,-0.9434329926701014,1.6829683498243828
9.396501399,-0.363115968036013,-1.1581089873291321,1.7798084188146057
9.401501399,-0.2797657436385329,-1.3598373456568942,1.8652641296951207
9.406501399,-0.19585242605526942,-1.5484253873558316,1.9397934450194505
9.411501399,-0.11154765583786855,-1.7238092033779124,2.0039262188445512
9.416501399,-0.02697437667082969,-1.8860411805732,2.058248514023099
9.421501399,0.05778235351685079,-2.0352769338184595,2.103386642001556
9.426501365,0.1426629081075945,-2.1717618245591197,2.1399912597120307
9.431501365,0.22761955676624845,-2.295817228148594,2.168721891797481
9.436501365,0.3126024384210676,-2.4078267060712926,2.1902322492107578
9.441501398,0.39754563813030225,-2.5082222421108695,2.205156686476729
9.446501398,0.48235395614380305,-2.5974707124688066,2.2140980855281915
9.451501398,0.566890936037303,-2.676060777655069,2.217617385526504
9.456501364,0.650968681551325,-2.7444904070987426,2.2162249081024896
9.461501364,0.734339935591108,-2.8032552722917092,2.2103735644702946
9.466501364,0.8166928178556377,-2.852838265111248,2.2004539775448912
9.471501397,0.897648520226251,-2.8937004085352993,2.1867915074764572
9.47650143,0.9767621434500293,-2.9262734225362013,2.1696451306852476
9.48150143,1.0535267279249005,-2.950954186059412,2.149208088754989
9.48650143,1.1273803904456177,-2.9681012961636175,2.125610193511497
9.49150143,1.1977163347754018,-2.978033868456862,2.098921647526745
9.49650143,1.2638953654017286,-2.9810326506287645,2.0691582140041267
9.50150143,1.3252604097127294,-2.9773434354783843,2.036287545826956
9.506501396,1.3811524530417918,-2.967182664271589,2.0002364616153487
9.511501396,1.430927222216236,-2.950745009147736,1.9608989403238146
9.516501396,1.4739719236863502,-2.9282126190572093,1.9181446001686717
9.521501429,1.509721356310866,-2.899765612724516,1.8718274375418402
9.526501429,1.5376727763563138,-2.8655933111705307,1.8217946303676678
9.531501429,1.5573989882490888,-2.8259056299367127,1.7678952579523508
9.536501395,1.568559259633576,-2.780944007018126,1.7099888508513765
9.541501361,1.5709078003166737,-2.7309912353343293,1.6479537496749492
9.546501327,1.5642996871205854,-2.6763796033808624,1.5816953076004263
9.551501327,1.5486942480274153,-2.6174968244150967,1.5111540043378175
9.55650136,1.5241560319120018,-2.554789348292696,1.4363135404748772
9.561501393,1.490853581491622,-2.4887627923795583,1.3572089478979061
9.566501426,1.4490562946932493,-2.419979387444919,1.2739346865068657
9.571501426,1.3991297006427492,-2.349052497593751,1.1866526047978205
9.576501426,1.3415294883284699,-2.27663842607326,1.095599530716262
9.581501392,1.2767946080655537,-2.203425849016873,1.0010941428240108
9.586501392,1.2055397213072492,-2.130123318549985,0.9035426664481596
9.591501392,1.1284472106495178,-2.057445341272807,0.8034428600173801
9.596500758,1.0462588896121658,-1.9860975680480106,0.701385714297855
9.601500791,0.9597674818723505,-1.9167616297819858,0.5980542894573438
9.606500124,0.869807880892137,-1.8500801278650731,0.4942191676925307
9.61149919,0.7772481584114161,-1.7866422449351647,0.3907301058747435
9.61649849,0.682980264847709,-1.726970388449635,0.2885036313501912
9.621497556,0.5879103536099466,-1.671508220038708,0.18850652614359417
9.626496622,0.4929486612292065,-1.6206103590815333,0.09173537746325527
9.631495722,0.39899888493929225,-1.5745339805091918,-0.0008073782803563676
9.636495755,0.3069470215376038,-1.5334324573333842,-0.08814023855401708
9.641495121,0.21764967038058913,-1.4973511323381525,-0.16933132570122153
9.646494254,0.13192186131942335,-1.4662252453573905,-0.24352785742523056
9.651493354,0.05052454246691067,-1.439879995666643,-0.3099851096795889
9.656492454,-0.02584805423258813,-1.4180326841803104,-0.36809349549199255
9.661491754,-0.09658086859434538,-1.4002968563447473,-0.41740237658070645
9.666491754,-0.1611499138253149,-1.3861883511336068,-0.4576393072506009
9.671491754,-0.21913319244715296,-1.3751331503169721,-0.4887235814503494
9.67649112,-0.2702201633639719,-1.3664769107231436,-0.5107732063665854
9.68149112,-0.31421929661993425,-1.3594960470670576,-0.5241047446313534
9.68649112,-0.351063285703916,-1.3534102125341239,-0.5292258311836608
9.69149112,-0.38081155314816956,-1.347395998913178,-0.5268205558632103
9.69649072,-0.4036497794691134,-1.3406016489106483,-0.5177282841402875
9.70149072,-0.4198863013395233,-1.332162542072637,-0.5029168417321582
9.706490653,-0.4299453534720768,-1.3212171844841314,-0.4834512910544285
9.711490653,-0.4343572606616669,-1.3069234032026809,-0.4604597577683446
9.716490653,-0.43374581303923226,-1.2884744215012942,-0.4350979074439521
9.721490686,-0.42881317153934095,-1.2651144732816688,-0.4085137142607163
9.726490719,-0.42032274674332126,-1.2361536077829411,-0.3818141013427315
9.731490719,-0.40908057007800225,-1.2009813416636568,-0.3560348708011911
9.736490685,-0.3959157313736787,-1.159078835538635,-0.3321150967240526
9.741490651,-0.3816604914845682,-1.110029304963899,-0.31087685027990286
9.746491317,-0.3671306933003196,-1.0535264195389975,-0.29301078894060445
9.751491317,-0.3531070879178277,-0.9893804961530375,-0.2790677950228288
9.756492017,-0.3403181615523688,-0.9175223517790183,-0.2694565118569536
9.761492917,-0.3294249875588133,-0.8380047463968062,-0.26444631520041967
9.766493583,-0.3210085317573949,-0.7510014168082203,-0.2641749867701599
9.771494483,-0.3155597073161747,-0.6568037764842894,-0.2686601377376178
9.776495383,-0.3134723147657638,-0.5558154333690822,-0.27781327271393386
9.781496283,-0.31503882866044325,-0.44854475373154945,-0.2914552975893089
9.786496249,-0.3204488238371926,-0.3355957721411032,-0.3093322650373083
9.791496915,-0.3297896882660932,-0.217657811153392,-0.33113022567467043
9.796497148,-0.3430491615670741,-0.09549422257825993,-0.3564882128639247
9.801498081,-0.3601191838918841,0.03006931430404156,-0.3850086296545599
9.806498981,-0.380800550617632,0.15815651250417492,-0.4162646123863932
9.811499647,-0.4048079448984259,0.2878518378664586,-0.44980429021949736
9.816499613,-0.43177505064560456,0.4182112152930836,-0.4851522044653895
9.821499613,-0.4612596119437269,0.5482718920925791,-0.5218084519978811
9.826500279,-0.4927484752877271,0.6770613865246926,-0.5592463374494296
9.831500312,-0.5256628011658165,0.8036055606248891,-0.5969094432746256
9.836500312,-0.5593637378063555,0.926935949520931,-0.6342090593753389
9.841500312,-0.5931588975378921,1.046096549218946,-0.6705228702779702
9.846500712,-0.626309963016603,1.1601503118361967,-0.7051956938073992
9.851500712,-0.6580416877360658,1.268185624830336,-0.7375429121320164
9.856500745,-0.6875524635534733,1.3693230617799919,-0.7668570416598942
9.861500711,-0.7140265303225443,1.4627226868797956,-0.7924176613963366
9.866500677,-0.7366478155756911,1.5475921700772406,-0.8135046745318987
9.871500677,-0.7546153205914812,1.6231959190327434,-0.8294146350072594
9.876500677,-0.767159908014145,1.6888653534348868,-0.8394796490711753
9.88150071,-0.7735622856496206,1.7440103367761217,-0.8430881753369072
9.88650071,-0.7731719119669513,1.7881316463715085,-0.8397069034111907
9.89150071,-0.7654264660150804,1.8208342152246757,-0.8289027948652705
9.896500676,-0.7498714285974731,1.841840733854489,-0.8103643226143744
9.901500642,-0.7261792195864545,1.8510050721101068,-0.7839209442682364
9.906500608,-0.6941672401973601,1.8483248843184916,-0.7495598874064668
9.911500608,-0.6538140931629521,1.8339527052779168,-0.7074394039839365
9.916500641,-0.605273211084347,1.8082048331854936,-0.657897760895326
9.921500674,-0.5488831223608114,1.77156732689156,-0.6014573685742146
9.926500707,-0.48517362756805926,1.72469851364113,-0.5388236053880562
9.931500707,-0.4148672441516819,1.6684275025240014,-0.47087807038940055
9.936500707,-0.3388753977989968,1.603748320932,-0.39866618888967403
9.941500673,-0.258288987905306,1.531809430719423,-0.3233793000028683
9.946501339,-0.17436312614561436,1.453898534169846,-0.246331563964709
9.951501339,-0.08849603738689778,1.3714227455998615,-0.16893222671960664
9.956501372,-0.0022023189144306237,1.2858843801847408,-0.09265395570285352
9.961501372,0.08291902548997382,1.1988527920245564,-0.01899810334753472
9.966501372,0.16522113213622153,1.1119328695550188,0.050542138135971894
9.971501338,0.24304953615864397,1.026730957904695,0.11451964752897699
9.976501304,0.31478506724728034,0.9448191171892419,0.1715712428804459
9.98150127,0.3788881298913403,0.8676987396323682,0.22045434179737597
9.98650127,0.4339429765035353,0.7967646348612853,0.26008120372445254
9.99150127,0.4787004883473964,0.7332707476545822,0.2895495314049528
9.996501303,0.5121179390281001,0.6782986883930324,0.3081682530957324
10.00150134,0.5333942359854288,0.632730223360766,0.3154774310012034
10.00650137,0.5419992237933723,0.597224779240247,0.31126145552069834
10.01150137,0.5376957948405007,0.5722028572729185,0.295554982546393
10.01650137,0.5205537909782816,0.5578360306502272,0.26864142681177877
10.02150134,0.49095498936400145,0.554043927323303,0.23104419933349638
10.02650134,0.4495888303277241,0.5604983004118533,0.18351122856372576
10.03150134,0.39743893624129517,0.5766339835583898,0.12699359532387558
10.03650137,0.33576085358900276,0.6016662425396925,0.06261931478615004
10.04150137,0.26605179334736545,0.6346137881073358,-0.008336594801269113
10.04650137,0.1900134250621464,0.6743265235308983,-0.08448459719370502
10.05150137,0.10950898950684637,0.7195169707269352,-0.16435455910152955
10.05650137,0.026516136395437574,0.7687942505659485,-0.2464300642976959
10.06150137,-0.056923026098024805,0.8206994803264358,-0.32918217001581856
10.06650133,-0.138753158615417,0.8737414861676485,-0.4111017582254034
10.07150133,-0.21695670895602714,0.9264318016782329,-0.49072974867189023
10.07650133,-0.2896033043549381,0.977318025688832,-0.5666845629396995
10.08150137,-0.3548962028337145,1.025014735370457,-0.6376863546519143
10.08650137,-0.4112146166255854,1.0682312879668245,-0.702577646730904
10.09150137,-0.4571508697355716,1.1057959919665434,-0.7603401405008089
10.09650133,-0.4915415204029049,1.1366762822977572,-0.8101075810906557
10.1015013,-0.5134917663429883,1.1599946895011688,-0.8511746752387587
10.1065013,-0.522392653448621,1.175040543338803,-0.8830021570335618
10.11150133,-0.5179308227472983,1.1812774888038438,-0.905218182284903
10.11650137,-0.5000907504045216,1.1783470084894603,-0.9176163038405463
10.12150136,-0.4691496554480049,1.1660682329566139,-0.9201503405735733
10.12650137,-0.4256654628974495,1.144434376773576,-0.9129265044998067
10.13150136,-0.37045840743388236,1.1136061627995961,-0.8961931951753997
10.13650136,-0.304587033268962,1.0739025952502992,-0.870328907637891
10.14150136,-0.22931947726523472,1.0257894210465672,-0.8358287263582833
10.14650133,-0.14610100585309335,0.9698655898818996,-0.7932898879949839
10.15150133,-0.05651880977437564,0.9068479980098861,-0.7433968857228535
10.15650133,0.037734951816860145,0.8375547883600931,-0.6869065548777202
10.16150136,0.13490091705674817,0.7628874852306199,-0.6246335229549446
10.16650136,0.2331902347009115,0.683812265121742,-0.5574363285758489
10.17150136,0.330821457214387,0.6013407008567572,-0.486204419508669
10.17650133,0.42605594234879207,0.5165103548801668,-0.4118461387315136
10.1815013,0.5172311788708395,0.430365628689341,-0.3352777118847069
10.18650126,0.6027915217295627,0.34393928827429227,-0.2574131712856623
10.19150126,0.6813158726649221,0.2582350722342995,-0.17915510042061397
10.1965013,0.7515418788200852,0.17421174660054822,-0.10138606334889314
10.20150133,0.8123862544101196,0.09276890124287847,-0.02496059442719517
10.20650136,0.8629608714659286,0.014734695738386922,0.04930234269512149
10.21150136,0.9025843256490247,-0.059144330667441104,0.12062647365788082
10.21650136,0.9307887674771984,-0.1282113586794827,0.1882849126970342
10.22150133,0.9473218982894832,-0.19190534648102056,0.2516064096169575
10.22650129,0.9521441604254854,-0.2497651487795097,0.3099810861009587
10.23150129,0.9454212954152355,-0.30143183399108986,0.36286559130596197
10.23650133,0.9275125922546273,-0.3466493472743771,0.40978761100040423
10.24150136,0.898955288180642,-0.3852636605170094,0.4503496850918679
10.24650136,0.8604457048423417,-0.4172205336422889,0.48423232085678164
10.25150136,0.8128177926402833,-0.44256199348803626,0.5111964245698868
10.25650132,0.7570198077972095,-0.46142162440015627,0.5310851018876696
10.26150129,0.6940898588279764,-0.4740187628092583,0.5438248892604908
10.26650126,0.6251310361135323,-0.48065169691637605,0.5494264727321866
10.27150126,0.5512867883366479,-0.4816899897404253,0.5479849305272075
10.27650129,0.47371714096743456,-0.4775660652591843,0.5396795086451995
10.28150132,0.39357627206227624,-0.46876621901788407,0.5247729107286123
10.28650136,0.31199187527931665,-0.45582123251747597,0.503610058589445
10.29150136,0.23004665321432044,-0.4392967817478464,0.4766162589838421
10.29650136,0.14876219766214543,-0.41978383219764787,0.4442946953140726
10.30150132,0.0690854277716128,-0.3978892045496816,0.4072231503217832
10.30650132,-0.008122326631898246,-0.3742264773553964,0.36604985872581663
10.31150132,-0.08209358885507684,-0.34940736674916767,0.32148838826972503
10.31650136,-0.15216041133434627,-0.32403369103367685,0.2743114543641823
10.32150136,-0.21775759204655498,-0.29868999240200717,0.22534358770666607
10.32650136,-0.278423610397786,-0.2739368516245147,0.1754525958880918
10.33150136,-0.33379949828862515,-0.250304896239799,0.1255397884506357
10.33650136,-0.3836258849651537,-0.22828947031529845,0.0765289691936952
10.34150136,-0.42773846706263763,-0.2083459057061983,0.029354238929605227
10.34650132,-0.4660621633573626,-0.19088531263714442,-0.015053304298117376
10.35150129,-0.49860422153248085,-0.17627079359645406,-0.0557798331319113
10.35650129,-0.5254465526650388,-0.16481398164286362,-0.0919438424963929
10.36150132,-0.5467375755016739,-0.15677181450755154,-0.12271174865768825
10.36650135,-0.5626838526496604,-0.1523434800734821,-0.1473137478833716
10.37150135,-0.5735417910309594,-0.15166750576242138,-0.16505959898727235
10.37650135,-0.5796096577501882,-0.1548190109954482,-0.17535395515159224
10.38150132,-0.5812201302249099,-0.16180719351966497,-0.17771084517896157
10.38650132,-0.5787335573318574,-0.17257317155298196,-0.17176689500738834
10.39150132,-0.5725320577879204,-0.18698834940499795,-0.1572928865053116
10.39650135,-0.5630145242402997,-0.20485351065500865,-0.1342032705565807
10.40150135,-0.5505925385066621,-0.22589886733379846,-0.10256328377095493
