Time (s),Acceleration x (m/s^2),Acceleration y (m/s^2),Acceleration z (m/s^2)
9.000906981,0.6836826694197484,-0.4219284760197502,-0.32840775878072337
9.005661825,0.858556000829893,-0.11805174871289684,-0.5965902245713346
9.010416616,1.0401183546236827,0.17394979089997697,-0.8633405214330723
9.01517146,1.2299695191282913,0.44775074726993835,-1.126107837633852
9.019926304,1.429451322554744,0.6973466036077963,-1.3823785865399334
9.024681095,1.6395768928565666,0.9171856078612319,-1.629713857295688
9.029435939,1.8609684554819916,1.1022932425126606,-1.8657848835611202
9.034190783,2.0938057929516303,1.2483864665960132,-2.08840577577913
9.038945627,2.337787132052287,1.3519750884308004,-2.295562903831744
9.043700418,2.5921038095178424,1.4104478618667566,-2.4854404778292976
9.048455262,2.85542961395011,1.422141192366115,-2.656442041936645
9.053210106,3.125925229591604,1.3863886854690632,-2.807207756408707
9.057964897,3.401257735685198,1.303550161790965,-2.936627483360983
9.062719741,3.678634662236293,1.1750191913883892,-3.043849800307031
9.067474585,3.954851685610531,1.0032086564220115,-3.1282871341691028
9.072229429,4.226352678099043,0.7915143239404151,-3.189617236218534
9.07698422,4.489300511906079,0.5442568899293563,-3.227781211649829
9.081739064,4.739656763299659,0.2666034320885536,-3.242978288302124
9.086493908,4.973268267912633,-0.03553032653729455,-3.2356574722514195
9.0912487,5.185958343420696,-0.3555950964823756,-3.206506208145396
9.096003543,5.37362042022742,-0.6865381817216393,-3.156436150417074
9.100758387,5.532311802317009,-1.0209460838971849,-3.0865661636579316
9.105513179,5.658345316256415,-1.351196591455725,-2.9982027069215498
9.110268022,5.748376693867567,-1.669617135579114,-2.8928178144551273
9.115022866,5.799485671495049,-1.9686460107324295,-2.772024958865333
9.11977771,5.809248973971392,-2.2409929555132333,-2.6375531639583807
9.124532502,5.775803580230977,-2.4797955731602737,-2.491219812692659
9.129287345,5.697898932769716,-2.6787681413193782,-2.334902659614421
9.134042189,5.574937044545001,-2.8323395154386866,-2.170511598993311
9.138796981,5.406999762464677,-2.9357770649943467,-1.9999607575585088
9.143551825,5.1948627541984616,-2.985293890067183,-1.8251414765608458
9.148306668,4.939996083931401,-2.978136939469189,-1.647896724849342
9.153061512,4.644551524494702,-2.9126540813736415,-1.4699974440200303
9.157816304,4.311337012244418,-2.7883386526815577,-1.2931212689885105
9.162571147,3.943778883832379,-2.6058505219655164,-1.1188339950644903
9.167325991,3.545872739981364,-2.367013229109446,-0.9485740810721198
9.172080783,3.1221239620793866,-2.0747872983798543,-0.7836403929744777
9.176835627,2.6774790649220166,-1.7332203464200355,-0.6251833070868823
9.18159047,2.217249203993408,-1.347375109043177,-0.4741992067600285
9.186345314,1.7470272671435472,-0.9232369784077374,-0.3315283208510897
9.191100106,1.2726000662325854,-0.4676030646090285,-0.19785576665907914
9.19585495,0.7998572022329336,0.012044835601965063,-0.07371557602925485
9.200609793,0.33469820624734153,0.5076806718297145,0.04050259588092239
9.205364585,-0.1170604408504716,1.0108850402256966,0.144544450061399
9.210119429,-0.5497768340793119,1.5130034413675073,0.2382801392385433
9.214874272,-0.958072189779889,2.005308681905652,0.32169194711180654
9.219629116,-1.336914956703829,2.4791641724550812,0.3948610386663238
9.224383908,-1.6816991290242413,2.9261849098252037,0.4579537693339041
9.229138752,-1.9883155061587967,3.3383930332202985,0.5112080234632337
9.233893595,-2.2532147711065607,3.7083650067654506,0.5549200196770769
9.238648387,-2.473461403525554,4.029367698526874,0.5894319735549972
9.243403231,-2.6467776045628257,4.295480891802569,0.6151209478631317
9.248158075,-2.7715765849516494,4.501704069833678,0.6323891496921525
9.252912918,-2.846984752686803,4.644045652121517,0.6416558566648485
9.25766771,-2.8728525276963275,4.7195932215048915,0.6433510762031792
9.262422554,-2.849753704115969,4.726563658831135,0.6379109676269601
9.267177397,-2.7789734717408097,4.664332489559714,0.6257749900510529
9.271932189,-2.6624853928173424,4.5334421371136635,0.6073846814351664
9.276687033,-2.502917804921611,4.335589164199761,0.5831839257355492
9.281441877,-2.303510282393796,4.073590958636256,0.5536205237743733
9.28619672,-2.0680609353833868,3.7513326779982346,0.5191488449323034
9.290951512,-1.8008654550310497,3.373695602117991,0.480233296182359
9.295706356,-1.5066489241876195,2.946468349707553,0.43735229956533195
9.3004612,-1.1904915047083655,2.4762426916489715,0.39100242115017186
9.305215991,-0.8577491849466624,1.9702959363725447,0.3417022518946506
9.309970835,-0.513970825138826,1.4364620707160598,0.28999561553892966
9.314725679,-0.1648127744975245,0.8829940119370274,0.23645368236918876
9.319480522,0.18404764698538495,0.31841946260940096,0.18167560770166583
9.324235314,0.5269985048462825,-0.24860704069617637,0.1262873908119261
9.328990158,0.858578155760364,-0.8094532328260551,0.07093875707445482
9.333745002,1.1735574328950509,-1.3556567057613227,0.016297990982352538
9.338499793,1.467017871566761,-1.8790683210327488,-0.03695522382416428
9.343254637,1.7344247783624964,-2.371988859834174,-0.08813878146789947
9.348009481,1.9716940046306335,-2.827296432776288,-0.13657866732136792
9.352764325,2.1752513612288236,-3.2385623291320718,-0.1816206410811112
9.357519116,2.3420837083615713,-3.6001531898799084,-0.2226426529325238
9.36227396,2.469780873538431,-3.9073176387430473,-0.25906750370416276
9.367028804,2.556567691076441,-4.156255798925671,-0.2903752262632205
9.371783595,2.6013256145337538,-4.344170457471221,-0.31611465520306853
9.376538439,2.6036035237543795,-4.469299009688645,-0.3359136705563961
9.381293283,2.563617525775666,-4.530925716452195,-0.3494876526535695
9.386048127,2.4822397303392516,-4.529374228781981,-0.35664576882889676
9.390802918,2.360976164877637,-4.465980766403046,-0.3572948219759272
9.395557762,2.2019341809282924,-4.343048767681133,-0.35144051438760804
9.400312606,2.007779894282911,-4.16378624395719,-0.33918610498636836
9.405067397,1.78168639236445,-3.9322274579513565,-0.32072855415968066
9.409822241,1.527273627327373,-3.6531408896631237,-0.2963523530643284
9.414577085,1.248541083014722,-3.331925740388316,-0.266421321455011
9.419331929,0.9497944521604755,-2.974499444046012,-0.2313687273028854
9.42408672,0.6355676865495884,-2.587178796740327,-0.19168612853355
9.428841564,0.31054188833060786,-2.176557377356157,-0.14791135889510584
9.433596408,-0.02053740744936848,-1.749381915929887,-0.10061607713246694
9.4383512,-0.3529429582695083,-1.3124301783910488,-0.05039327644324243
9.443106043,-0.6820469351680981,-0.872392784845529,0.0021548836859163903
9.447860887,-1.003398858594286,-0.43576117470968156,0.05642860341039592
9.452615731,-1.3127988412499694,-0.008723687488100876,0.11184105309063236
9.457370522,-1.6063647394590208,0.40292854565444186,0.16782784512687693
9.462125366,-1.880591955172783,0.7938844968358393,0.22385519529211909
9.46688021,-2.1324047982697953,1.1593838228079754,0.27942665373641123
9.471635002,-2.3591985094535595,1.4952743379812148,0.33408833690606893
9.476389845,-2.5588712536174048,1.7980558860765459,0.3874326408795205
9.481144689,-2.729845617578732,2.0649104095589292,0.43910046293406346
9.485899533,-2.8710793799214884,2.293718293682549,0.48878200005617234
9.490654325,-2.982065559188347,2.483061321162468,0.5362162294892735
9.495409168,-3.062821983950179,2.6322128114403007,0.5811892072187803
9.500164012,-3.1138708578003738,2.7411157335573333,0.6235313463817752
9.504918856,-3.1362090074110998,2.8103497727200852,0.663113860051198
9.509673647,-3.131269696390688,2.8410884968375343,0.6998445723258372
9.514428491,-3.100877056630405,2.8350479095928147,0.7336633179037767
9.519183335,-3.04719432770681,2.7944277896608685,0.7645371620566922
9.523938127,-2.9726672003472587,2.721847299850243,0.7924556779659285
9.52869297,-2.87996363061905,2.6202764034362107,0.8174265138162714
9.533447814,-2.7719115283581615,2.4929646462045416,0.8394714648561054
9.538202658,-2.6514357285331602,2.3433688508591612,0.8586232339554065
9.54295745,-2.521495629260358,2.175081225603825,0.8749230184349944
9.547712293,-2.3850248253160227,1.9917593121870714,0.8884190039276049
9.552467137,-2.244873980962733,1.797059092760744,0.8991657822557833
9.557221929,-2.1037580710490236,1.5945724423907843,0.9072246449249116
9.561976772,-1.964208976423277,1.3877699582501508,0.9126646417236937
9.566731616,-1.8285342523491128,1.1799500212580192,0.915564239053648
9.57148646,-1.698782702198705,0.9741947557661869,0.9160133677995789
9.576241252,-1.5767171898613381,0.7733333531119219,0.9141156179197436
9.580996095,-1.4637949204705256,0.5799130212616951,0.909990318604828
9.585750939,-1.3611552181951714,0.3961776213214162,0.9037742413331368
9.590505731,-1.2696146400118713,0.22405385813092332,0.8956226807456821
9.595260575,-1.189669092899238,0.06514471182666126,0.8857097056743951
9.600015418,-1.121502474444547,-0.07927036503917134,0.8742274276329067
9.604770262,-1.065001236772183,-0.20822910033576747,0.8613842012588013
9.609525054,-1.0197741818488255,-0.32107463522747215,0.8474017432789304
9.614279897,-0.9851767314744475,-0.4174391537669925,0.8325112262267269
9.619034741,-0.9603388755033042,-0.4972237829316537,0.8169484647713727
9.623789533,-0.944195984767469,-0.5605756634430178,0.8009483630980135
9.628544377,-0.9355216787085153,-0.6078630879316609,0.7847388305739792
9.63329922,-0.9329619600136464,-0.6396495700552477,0.7685344004615148
9.638054064,-0.9350698680161115,-0.6566676484609227,0.7525298031658622
9.642808908,-0.9403399577934068,-0.6597931462608274,0.7368937509963155
9.6475637,-0.9472419808444229,-0.6500205037885726,0.721763184570118
9.652318543,-0.9542532226157219,-0.6284396842293503,0.7072382114453688
9.657073387,-0.9598890366373655,-0.596215023331504,0.6933779370808774
9.661828179,-0.9627311978182259,-0.5545662613874661,0.680197350628643
9.666583022,-0.9614537722266261,-0.504751863697977,0.6676653876492501
9.671337866,-0.9548462638435553,-0.4480546101503487,0.6557042513818295
9.676092658,-0.94183385019459,-0.38576932005688513,0.6441900344423551
9.680847502,-0.9214945606268593,-0.3191924789800833,0.6329546436762387
9.685602345,-0.893073286007141,-0.24961345320554879,0.6217889931070677
9.690357189,-0.8559925391316272,-0.17830691748048091,0.6104473957926242
9.695111981,-0.8098599134618754,-0.10652608456136302,0.5986530579481592
9.699866825,-0.754472216805294,-0.03549631207028654,0.5861045600096506
9.704621668,-0.6898162896890584,0.03359132673353349,0.5724831991432363
9.70937646,-0.6160665585846232,0.09958688718949331,0.5574610632576195
9.714131304,-0.5335794233738645,0.16138913518678527,0.5407097034893471
9.718886147,-0.4428846354668649,0.2179541139038343,0.5219092661568402
9.723640991,-0.3446738839698424,0.2683048503250238,0.5007579335173029
9.728395783,-0.23978686643612124,0.31154225171482663,0.4769815043790275
9.733150627,-0.12919517179270315,0.3468571291616149,0.4503429213482142
9.73790547,-0.013984341128252453,0.3735431689276246,0.4206515229162845
9.742660314,0.1046655055335037,0.3910105578415428,0.38777176817775977
9.747415106,0.22550008216360115,0.39879986174335286,0.35163115298846476
9.75216995,0.34721200408324326,0.3965956616983097,0.3122270131496559
9.756924793,0.46846214649698315,0.38423937700537736,0.2696318980164884
9.761679585,0.5879009629580747,0.36174065197889776,0.22399720229467024
9.766434429,0.7041894710114809,0.3292866589104579,0.17555476912342136
9.771189272,0.8160196535439542,0.287248674895462,0.12461622564420839
9.775944116,0.9221340647957228,0.2361853262369675,0.07156988132958055
9.780698908,1.021344466325914,0.17684196036043767,0.016875104286622897
9.785453752,1.1125493481494424,0.1101456995917442,-0.03894581526589196
9.790208595,1.19475021275316,0.03719585044673014,-0.09531820857139732
9.794963387,1.2670665150505716,-0.04075051804722526,-0.15162777863469962
9.799718231,1.3287491607153368,-0.12229785780004107,-0.20723526679620088
9.804473075,1.3791924701362805,-0.20593615109708538,-0.2614926602395471
9.809227918,1.4179445165136195,-0.2900693378273912,-0.31376048605008844
9.81398271,1.444715744693596,-0.3730476795990448,-0.3634256663598167
9.818737554,1.4593857718330574,-0.4532034130942934,-0.4099193506875514
9.823492397,1.4620082614993788,-0.5288888910127166,-0.4527341028377935
9.828247189,1.4528137499655744,-0.5985162745531336,-0.49143980829676825
9.833002033,1.432210289423166,-0.6605977330881205,-0.525697689810897
9.837756877,1.400781761041735,-0.7137850301264156,-0.5552718759050245
9.84251172,1.359283705321903,-0.7569073339839132,-0.5800380571394685
9.847266512,1.3086365220959368,-0.789006088977014,-0.5999888812668146
9.852021356,1.2499159112543723,-0.8093658187348074,-0.6152358713026826
9.8567762,1.184340459785234,-0.817539806438396,-0.6260077888091103
9.861531043,1.1132563309570251,-0.8133697057855372,-0.632645498433194
9.866285835,1.038119075987894,-0.7969982792015402,-0.6355935117090193
9.871040679,0.9604726656934318,-0.7688746338154001,-0.6353884940633834
9.875795522,0.8819259273438124,-0.7297515277081099,-0.6326451070540282
9.880550314,0.8041266660328328,-0.6806745440264578,-0.6280396282009831
9.885305158,0.7287338435192244,-0.6229631717181149,-0.6222918444292842
9.890060002,0.6573882735994132,-0.5581840799843079,-0.6161457527378873
9.894814793,0.5916823661897413,-0.48811711908233996,-0.6103496224555954
9.899569637,0.533129509343193,-0.41471481275403876,-0.6056359756676072
9.904324481,0.48313371812998923,-0.3400563181655557,-0.6027020250752647
9.909079325,0.4429602013940528,-0.26629701034904935,-0.6021910727427877
9.913834116,0.4137075020750004,-0.195614993996091,-0.6046753223876393
9.91858896,0.3962818547828821,-0.13015595182278492,-0.6106404970013461
9.923343804,0.39137437685907667,-0.07197780287702532,-0.6204725872190505
9.928098647,0.3994416675497336,-0.02299666492254237,-0.6344469870724893
9.932853439,0.42069033498688446,0.015064407533678922,-0.652720204360694
9.937608283,0.45506590278542625,0.04072250313092572,-0.6753242643319939
9.942363127,0.5022464679208954,0.05277645130921187,-0.7021638594134674
9.947117918,0.5616413910566456,0.0503417825942381,-0.7330162361086713
9.951872762,0.6323952025452663,0.03287807608407579,-0.7675337544134712
9.956627606,0.7133968045020623,0.0002079270723708423,-0.8052490066915372
9.96138245,0.8032939428302746,-0.047473003068493176,-0.8455823437575939
9.966137241,0.9005128131991097,-0.10959515128822495,-0.8878516274914265
9.970892085,1.0032825526842195,-0.18522348285190565,-0.9312840114212015
9.975646929,1.1096642564702939,-0.27307499620816905,-0.9750295402924497
9.98040172,1.217584050084363,-0.371544879396452,-1.018176351189322
9.985156564,1.3248696456083313,-0.4787406770668284,-1.0597672463965173
9.989911408,1.4292897183503264,-0.5925236294415088,-1.0988173881642425
9.994666252,1.5285953609251872,-0.7105561702502741,-1.134332837988732
9.999421043,1.6205628059107744,-0.8303544221993423,-1.1653296316671498
10.00417589,1.7030365567751256,-0.9493444074153415,-1.1908530518720224
10.00893073,1.773972030920594,-1.0649205978122307,-1.209996737994431
10.01368558,1.8314768019438072,-1.1745053681412954,-1.2219212628410814
10.01844037,1.873849535475042,-1.2756078849558523,-1.225871809714815
10.02319521,1.8996157477178335,-1.3658809702874801,-1.221194601655261
10.02795005,1.9075595778818006,-1.443174521084681,-1.2073517653594392
10.03270485,1.8967508517963003,-1.5055841447804934,-1.183934351724238
10.03745969,1.8665668199110224,-1.5514937870408207,-1.1506732777423339
10.04221453,1.8167080745408035,-1.5796112780434461,-1.1074479955390026
10.04696938,1.747208283785765,-1.5889959053512115,-1.0542927309335375
10.05172417,1.6584375174217254,-1.579077329779767,-0.9914001663311253
10.05647901,1.5510990787403012,-1.5496653898416404,-0.9191224728403369
10.06123386,1.4262198939361201,-1.5009505845742404,-0.8379696262794631
10.0659887,1.2851346464418612,-1.4334952782391606,-0.7486049736721015
10.07074349,1.1294639757965534,-1.348215927373656,-0.6518380542681892
10.07549834,0.9610871860200939,-1.246356883828717,-0.5486147247003972
10.08025318,0.7821100231548531,-1.129456569261249,-0.4400046914911405
10.08500797,0.5948281812734246,-0.9993070400567176,-0.3271866128563374
10.08976281,0.4016872766283127,-0.8579081600802171,-0.21143099160980058
10.09451766,0.20524008783034123,-0.7074177644788098,-0.0940811379305075
10.09927245,0.0081018952550062,-0.5500993219946699,0.023467469899514138
10.10402729,-0.18709523305800704,-0.388268676096687,0.1397890628896176
10.10878214,-0.37774836538330103,-0.22424145867140635,0.2534503158710356
10.11353698,-0.5613290140668112,-0.06028272052037213,0.3630335603716688
10.11829177,-0.7354270303910635,0.1014397879612849,0.4671601131356383
10.12304662,-0.897792331346823,0.25889741936918476,0.5645133783649944
10.12780146,-1.0463737566810383,0.4102364629428397,0.6538613977609093
10.1325563,-1.1793544179625544,0.5538072080843174,0.7340785265147742
10.1373111,-1.2951829699834845,0.688185711666854,0.8041659025744893
10.14206594,-1.3926003034711771,0.8121880295499523,0.8632703535767231
10.14682078,-1.4706612228705183,0.9248769583440173,0.9107013595405474
10.15157558,-1.5287507328324494,1.0255616065107505,0.94594567197587
10.15633042,-1.5665946157510584,1.1137903628796135,0.9686791925243678
10.16108526,-1.5842640484093375,1.1893380448268167,0.9787757424618552
10.16584011,-1.5821740872372965,1.2521881786316023,0.9763124080291392
10.1705949,-1.5610759535882082,1.302511484350382,0.9615712212952168
10.17534974,-1.522043172192045,1.3406417034757316,0.9350370266780427
10.18010458,-1.4664517529967542,1.3670499199081598,0.8973914839770403
10.18485938,-1.3959547516895559,1.3823184874437404,0.8495032633871942
10.18961422,-1.3124516877184729,1.3871155971327915,0.7924145879969904
10.19436906,-1.218053429882184,1.3821714039683979,0.7273243656144969
10.19912391,-1.1150432689381797,1.3682564927518754,0.6555682181647043
10.2038787,-1.0058349776891733,1.3461633048557335,0.5785957629699257
10.20863354,-0.8929287089161062,1.3166909768377282,0.49794553163623106
10.21338839,-0.7788656012246071,1.2806338633869352,0.4152179377180903
10.21814318,-0.6661819564595349,1.2387738354968885,0.3320467311070299
10.22289802,-0.5573638264093949,1.1918762650285468,0.2500694082424842
10.22765287,-0.4548028085094378,1.1406894349249013,0.17089708203058065
10.23240771,-0.3607538058807292,1.0859469572817309,0.09608435160285116
10.23716255,-0.27729545828180935,1.0283726465162777,0.02709974772450402
10.24191735,-0.20629389571415235,0.9686871883175112,-0.03470263770230205
10.24667219,-0.14937040229285828,0.9076158713284938,-0.08810970482238
10.25142703,-0.10787350233783692,0.8458966097132866,-0.13207343969054539
10.25618182,-0.08285589363941218,0.7842874806639138,-0.16573192379266408
10.26093667,-0.07505655714106628,0.7235730290949053,-0.18842668487571093
10.26569151,-0.08488827212664014,0.6645686482138291,-0.19971590173241885
10.2704463,-0.11243066613860431,0.6081224247837715,-0.19938309480183453
10.27520115,-0.1574288334693621,0.5551139378539781,-0.18744107592993864
10.27995599,-0.2192974680999856,0.506449616992671,-0.1641310811454545
10.28471084,-0.29713037752272436,0.4630543990171278,-0.1299171564293974
10.28946563,-0.3897151718673617,0.42585956913314016,-0.08547599721271222
10.29422047,-0.49555285546346334,0.3957868303303436,-0.03168255069468873
10.29897531,-0.6128819829403451,0.37372880939437053,0.030408226617844335
10.30373016,-0.7397069787026185,0.36052637344629135,0.09958300410086407
10.30848495,-0.873830159038183,0.35694329146702486,0.17449461232233554
10.31323979,-1.012886943507388,0.3636389247770689,0.2536889578913371
10.31799464,-1.1543836996144243,0.38113976313910486,0.3356337749265597
10.32274943,-1.2957376334719288,0.40981073358410325,0.4187486479099604
10.32750427,-1.4343181186508467,0.44982729223878376,0.5014357164846549
10.33225912,-1.5674888434732357,0.5011493610225484,0.5821104499778009
10.33701396,-1.6926501508575744,0.56349818765795,0.6592318654658661
10.34176875,-1.8072809425181162,0.6363371868076272,0.7313315654744907
