Time (s),X (m/s^2),Y (m/s^2),Z (m/s^2)
6.007466125,0.03961310358707038,0.06820035537097796,0.05108589402543642
6.017390125,0.08057826832008282,0.10404597319115745,0.04486677525225077
6.027315125,0.12197475218032319,0.137847352128566,0.03735992992119696
6.037240125,0.16271756847163257,0.16878874269263244,0.02862352126384503
6.047164125,0.2017094239701225,0.196155912550293,0.01876515993975903
6.057089125,0.23786176574884446,0.2193555029111363,0.007938373342890383
6.067014125,0.27011589962464155,0.23792975653441825,-0.003662217468142571
6.076939125,0.2974640545575971,0.2515661246357834,-0.015806813669587763
6.086863125,0.3189702785150445,0.2601014531788049,-0.028237309414446653
6.096788125,0.3337910237512572,0.2635206746063073,-0.04067504751681802
6.106713125,0.34119521700376443,0.2619501768291559,-0.052829444025470615
6.116637125,0.34058352531102076,0.2556462641086518,-0.06440748365266798
6.126562125,0.3315064369869247,0.24497933811618683,-0.07512405443981249
6.136487125,0.3136806940292833,0.23041459253238544,-0.08471300138660176
6.146411125,0.28700354659766886,0.21249012602904038,-0.0929386473920501
6.156336125,0.25156425731105303,0.19179344486068742,-0.0996073809995572
6.166261125,0.2076522656568897,0.16893735914780822,-0.10457877251123562
6.176185125,0.15576143325966935,0.14453627987279646,-0.10777557495061954
6.186110125,0.09658983212078473,0.11918389140850572,-0.10919190683361561
6.196035125,0.031034612289086907,0.09343310206764062,-0.1088989060562302
6.205960125,-0.03981840815943225,0.06777906655782925,-0.10704719136718317
6.215884125,-0.11471065349677416,0.042645941406313385,-0.10386557104557541
6.225809125,-0.19223226601362386,0.01837788861585914,-0.09965559717309556
6.235734125,-0.27084903451713455,-0.004765315001447997,-0.09478177477402805
6.245658125,-0.3489344693189209,-0.026607887209785994,-0.0896574888409976
6.255583125,-0.4248065114928693,-0.04705291733522003,-0.08472699256767974
6.265508125,-0.49676815152962056,-0.06607283849217022,-0.08044408606707165
6.275432125,-0.5631510182929337,-0.0836961463147802,-0.07724838653826582
6.285357125,-0.6223607903719485,-0.09999134867880151,-0.0755403324594808
6.295282125,-0.6729230907351328,-0.11504942117788343,-0.0756562608538766
6.305203542,-0.7135283701383563,-0.12896623595700052,-0.07784502856203379
6.315127542,-0.7430741844840073,-0.14182648367990794,-0.08224769263390048
6.325052542,-0.7607032399065813,-0.15369049698053347,-0.0888817006692792
6.334977542,-0.7658356208476286,-0.1645851123054159,-0.09763085771748528
6.344901542,-0.7581937286047375,-0.17449930764866942,-0.10824203556558304
6.354826542,-0.7378186389017646,-0.1833848811099686,-0.12032919331383639
6.364751542,-0.7050768379506607,-0.1911619535556185,-0.13338481910114205
6.374675542,-0.6606566180554353,-0.19772864547756802,-0.14679842237491805
6.384600542,-0.6055538017438256,-0.20297393347623427,-0.15988124566985687
6.394525542,-0.5410469052050161,-0.20679245530166818,-0.17189596348812752
6.404449542,-0.46866232551635884,-0.20909990641414708,-0.18208982715587974
6.414374542,-0.39013061036314794,-0.2098476464995036,-0.18972952248253294
6.424299542,-0.3073353051518992,-0.20903519777189433,-0.1941359420559172
6.434224542,-0.2222562307233238,-0.20671945653136667,-0.19471713114865113
6.444148542,-0.13690929231105214,-0.2030196490434368,-0.19099782710250124
6.454073542,-0.053285038219368766,-0.1981173407313334,-0.18264424935148119
6.463998542,0.026711826103340323,-0.19225115117956207,-0.16948308003853554
6.473922542,0.101319890902232,-0.1857062240660385,-0.15151387442236822
6.483847542,0.16897360046568535,-0.17879892261770636,-0.12891443389164775
6.493772542,0.22834932842830472,-0.17185762568083504,-0.10203895088648973
6.503696542,0.2784036802098162,-0.16520084252131514,-0.07140899346106684
6.513621542,0.3184030319254747,-0.15911411253558574,-0.03769764342402751
6.523546542,0.3479435962713013,-0.15382729448506435,-0.001707342671316487
6.533471542,0.3669615589520879,-0.14949388048574833,0.035657760075398406
6.543395542,0.3757330534582276,-0.14617390238389597,0.0734239402773001
6.553320542,0.37486394550940993,-0.1438218419079932,0.1105832753160876
6.563245542,0.3652695944680816,-0.1422807175012742,0.146130866071268
6.573169542,0.348144960363382,-0.1412832040510654,0.17910238083075428
6.583094542,0.324925640506023,-0.14046025196329937,0.20861034675758372
6.593019542,0.2972406527353111,-0.13935721977965648,0.23387763463126687
6.602943542,0.26685803309663186,-0.13745703903012688,0.25426668147260795
6.612868542,0.23562458084485183,-0.13420941966200042,0.269303172091639
6.622793542,0.20540135542125357,-0.12906461450843668,0.2786931474507074
6.632718542,0.17799679584439443,-0.12150982949466432,0.2823328125012127
6.642642542,0.15509957616296213,-0.11110602751977906,0.2803106620930869
6.652567542,0.13821351217817468,-0.09752265766846671,0.2729019111207862
6.662492542,0.12859697426185976,-0.08056777241079446,0.26055558380059035
6.672416542,0.12720931809351385,-0.0602110958358943,0.24387496673416947
6.682341542,0.134666799563322,-0.036597894763615184,0.22359244184694102
6.692266542,0.1512102745653911,-0.010051993227565366,0.2005399708696871
6.702190542,0.17668668628148884,0.018933045199280657,0.1756166885876277
6.712115542,0.21054590568322631,0.04971469446540763,0.14975516700487831
6.722040542,0.2518539176011759,0.08153338278959307,0.12388792800439262
6.731965542,0.2993226478244671,0.1135537816665996,0.09891569984348021
6.741889542,0.35135593183625063,0.14491286175324158,0.07567872992164347
6.751814542,0.40611027133097405,0.1747714767040082,0.05493219432992299
6.761739542,0.46156816128291345,0.2023658658027477,0.03732641398679079
6.771663542,0.5156209595876695,0.22705538233268374,0.02339223676723942
6.781588542,0.5661575814520391,0.2483629546178665,0.013531607340881794
6.791513542,0.611154798840619,0.2660052500522618,0.008013041652483859
6.801437542,0.648764666549905,0.27991020131942873,0.00697146600755324
6.811362542,0.6773946130643442,0.29022041303552004,0.010411688021247482
6.821287542,0.6957760282990142,0.297281927672978,0.01821465379245702
6.831212542,0.7030177249906928,0.3016188182659062,0.030145619444786758
6.841136542,0.6986414010689909,0.3038950210747607,0.04586341999075636
6.851061542,0.6825971369661051,0.30486565972834345,0.06493013931599283
6.860986542,0.6552579773872931,0.3053207877673918,0.08682065312775089
6.870910542,0.6173937278360977,0.30602494649433387,0.11093171262873255
6.880835542,0.570125197949943,0.30765617756321795,0.13659044170863005
6.890760542,0.5148611962946648,0.31074814837122866,0.1630623166473356
6.900684542,0.4532215652605837,0.3156388682414979,0.189558867543962
6.910609542,0.3869503741193271,0.3224291293051236,0.21524547047501522
6.920534542,0.3178239993723033,0.33095333048678777,0.23924968111547637
6.930459542,0.2475591625951616,0.34076476252959703,0.2606705949113296
6.940383542,0.17772603389363684,0.351136769365846,0.2785897105025695
6.950308542,0.10967123162904617,0.3610804789168205,0.2920837247340518
6.960233542,0.0444549660059127,0.36937903752485973,0.3002395995228913
6.970157542,-0.017194281785489922,0.3746375092664174,0.3021721153711494
6.980082542,-0.07490522620886578,0.37534683785965073,0.2970439709332425
6.990007542,-0.128668286056891,0.36995954139283427,0.2840883130717607
6.999931542,-0.17881930036989133,0.3569741478069941,0.2626333956191406
7.009856542,-0.22600384806263568,0.33502481069369117,0.23212887212963942
7.019781542,-0.2711246744247051,0.3029720971749849,0.19217303074484474
7.029706542,-0.315275635741517,0.2599906368794353,0.1425400825670601
7.039630542,-0.35966622784837937,0.20564918491347492,0.08320643079293748
7.049555542,-0.40554113407385467,0.13997869992458836,0.01437469840950679
7.059480542,-0.45409930632481194,0.06352428431763518,-0.0635057952547265
7.069404542,-0.5064168963978039,-0.022622713469076773,-0.1497234221373541
7.079329542,-0.5633779169047719,-0.11681547225340089,-0.24329471999867952
7.089254542,-0.6256158773986727,-0.21686752100883325,-0.34296199702960867
7.099178542,-0.693468861032074,-0.3200947451137683,-0.44719885270488374
7.109103542,-0.7669496302373668,-0.423383532738363,-0.5542240833496069
7.119028542,-0.8457314246190383,-0.5232837561487046,-0.6620240839547661
7.128953542,-0.9291491866942905,-0.6161239959021783,-0.7683834901595986
7.138877542,-1.0162150654531787,-0.6981451734516595,-0.8709234573066125
7.148802542,-1.105646246022337,-0.7656476367556795,-0.9671466719787518
7.158727542,-1.1959024771602165,-0.815145822489696,-1.0544879467743478
7.168651542,-1.2852301589321213,-0.8435239652840669,-1.1303690599983294
7.178576542,-1.3717095537889608,-0.8481859882539169,-1.192256365519668
7.188501542,-1.45330163573327,-0.8271927203932069,-1.237719623569528
7.198425542,-1.5278913248452515,-0.7793799586844965,-1.264490514334998
7.208350542,-1.5933243820639003,-0.7044516178501622,-1.2705194157561608
7.218275542,-1.6474360542726243,-0.6030432496827272,-1.2540292602391523
7.228200542,-1.6880706284894214,-0.47675249231555905,-1.2135656157236252
7.238124542,-1.7130923088458365,-0.32813442269821275,-1.1480425320131018
7.248049542,-1.7203891663646376,-0.16066121664818,-1.0567841092546906
7.257974542,-1.7078731956682518,0.021353128805472327,-0.9395621281519266
7.267898542,-1.6734806021827309,0.21286104630685387,-0.7966303678857531
7.277823542,-1.61517720823228,0.4082196081684823,-0.6287563565222783
7.287748542,-1.530974203477255,0.6013547858650395,-0.4372511765742148
7.297673,-1.4189593068154898,0.7859470914824954,-0.22399752677447038
7.307598,-1.277347728612567,0.9556332927240359,0.008524493666023137
7.317523,-1.1045561444675165,1.104218347999088,0.25721539987699327
7.327448,-0.8993012706707518,1.2258912454515491,0.5183407674573217
7.337372,-0.6607226430663871,1.3154380569189525,0.7875258172392248
7.347297,-0.3885269338733711,1.368445266229017,1.0597647418733782
7.357222,-0.08314870658575764,1.381486343251954,1.3294499817452623
7.367146,0.25407993919985594,1.3522846443590357,1.5904268889610937
7.377071,0.6207606465336392,1.2798460410496157,1.8360790147966504
7.386996,1.0132726938897,1.16455521069174,2.059448552864505
7.39692,1.4266425129256708,1.0082302573707864,2.2533951845660893
7.406845,1.8544524924259336,0.8141312507719358,2.410794630230822
7.41677,2.2888026363674205,0.5869193562168602,2.5247755875163085
7.426695,2.7203377608495316,0.332564463511477,2.5889905004981046
7.436619,3.1383512166353342,0.058200602956877054,2.597911912388531
7.446544,3.5309735928917707,-0.22807002801147971,2.5471422996394133
7.456469,3.8854514509703133,-0.5174218980192636,2.433721679283998
7.466393,4.1885167799277605,-0.800595404037911,2.2564144099559704
7.476318,4.42684252405557,-1.0682240162403247,2.0159549139073634
7.486243,4.5875733530510745,-1.3111904452446064,1.7152318283775247
7.496167,4.658914232613654,-1.521000540077046,1.3593914776519636
7.506092,4.630752904853089,-1.690161220333125,0.9558445616154682
7.516017,4.4952867534454,-1.812546563953696,0.5141645315511862
7.525942,4.24762030305286,-1.8837344535138285,0.045872100838895376
7.535866,3.886297271002638,-1.9012952000632533,-0.4358926517448307
7.545791,3.413730980332433,-1.8650135727674988,-0.9168016781829778
7.555716,2.8364991825091406,-1.7770268490123788,-1.3818577725499073
7.56564,2.1654738342378486,-1.6418639271919873,-1.8159784369110104
7.575565,1.4157628764693722,-1.4663741500004894,-2.2046174512919032
7.58549,0.6064492768788748,-1.2595391131142406,-2.5343933123774627
7.595414,-0.23987775690768373,-1.0321661851429844,-2.793691964001222
7.605339,-1.0977937082913067,-0.7964685258721601,-2.9732115034187325
7.615264,-1.939894677442892,-0.565542797368677,-3.066418888878881
7.625189,-2.737809645048644,-0.3527621611938457,-3.0698929053132833
7.635113,-3.463329635787947,-0.1711081324439736,-2.9835334328978824
7.645038,-4.089605066072406,-0.032470039652343095,-2.8106240272340632
7.654963,-4.592355505747281,0.05305508073190927,-2.557742511725344
7.664887,-4.951031868322933,0.07782659567629334,-2.2345222201262267
7.674812,-5.149870134131985,0.037251680966421535,-1.8532743028457959
7.684737,-5.1787783543396,-0.06973207129038547,-1.4284888062490215
7.694662,-5.034004857957039,-0.2403164235264106,-0.9762386889785497
7.704586,-4.718544981182818,-0.46765379188415773,-0.5135160434591087
7.714511,-4.242255713479315,-0.7408829329390356,-0.0575329839864943
7.724436,-3.6216617116070107,-1.0453638544331256,0.3749794211944222
7.73436,-2.879451408030218,-1.3631272237214362,0.7684421683406097
7.744285,-2.043677656144885,-1.6735327188365372,1.1090406330507767
7.75421,-1.1466927386943133,-1.9541190574438885,1.3852543693946364
7.764134,-0.2238618541238541,-2.1816163673858555,1.588286331888795
7.774059,0.687888360674369,-2.333079808474849,1.712379433993734
7.783984,1.5516198523294689,-2.3870928124004376,1.7550137925956697
7.793909,2.3319587392130416,-2.324980096994218,1.7169822814276618
7.803833,2.996620843212988,-2.1319659047064063,1.6023449972219799
7.813758,3.517813184364781,-1.7982125635977244,1.41826542541655
7.823683,3.87344341718389,-1.3196786723380995,1.1747332743943704
7.833607,4.048079146798341,-0.6987444676341578,0.884181686729797
7.843532,4.033612368046793,0.05543674131703778,0.5610098599679721
7.853457,3.829599941603375,0.9268889363573021,0.2210256464904073
7.863381,3.4432678443906153,1.8930792534634924,-0.1191739789922413
7.873306,2.889183688204333,2.925498682961762,-0.44286384970473625
7.883231,2.1886177087733336,3.9905428217805765,-0.7338699021581878
7.893156,1.3686264153402143,5.050664343873541,-0.9772420768985846
7.90308,0.4609048885783721,6.06575624347261,-1.1598949759472106
7.913005,-0.4995370694452914,6.9947136599904125,-1.2711901026950778
7.92293,-1.475813429801893,7.797112664758147,-1.3034341102032787
7.932854,-2.430650404394781,8.434937202347475,-1.252269179649028
7.942779,-3.3278602127565877,8.874280801599753,-1.1169345813025222
7.952704,-4.133738467559041,9.086948007381748,-0.9003827060733285
7.962629,-4.818329145136211,9.051881960339552,-0.6092383738973324
7.972553,-5.35650894376891,8.756349288044092,-0.253596899264643
7.982478,-5.7288523340729745,8.19682143399464,0.1533360261406651
7.992403,-5.92224922982087,7.379502523324057,0.5957514967314671
8.002327,-5.930258416507943,6.320467451565829,1.0558724732532572
8.012252,-5.753191155914337,5.045389561502503,1.514690425180179
8.022177,-5.397930280912255,3.588854447420572,1.9527713189970908
8.032101,-4.8775002438160255,1.993274472607779,2.351094580386395
8.042026,-4.210412732654686,0.30743686478577154,2.6918862778664048
8.051951,-3.4198204538334793,-1.4152639143723829,2.9594071083907623
8.061876,-2.532518347918034,-3.1188421980715484,3.140656771088357
8.0718,-1.5778366758518227,-4.7469036103536855,3.2259590379044325
8.081725,-0.5864738660578953,-6.244900389955445,3.209396380959043
8.09165,0.4106814684800126,-7.562357968196529,3.089069504976708
8.101574,1.3836905337389027,-8.654967956033438,2.867165580753369
8.111499,2.304620442337943,-9.486444973921,2.549829253833092
8.121424,3.1484756759275743,-10.030053330624916,2.146842260662794
8.131348,3.8939716205500168,-10.269724750260753,1.6711300211691384
8.141273,4.524125842307015,-10.200709764420596,1.1381256968497109
8.151198,5.026652314386208,-9.829731687817578,0.5650322374339802
8.161123,5.394153001695587,-9.17464093759387,-0.029970771008070295
8.171047,5.624109625766043,-8.263595792965795,-0.6285268548831713
8.180972,5.718686117939385,-7.133820558695497,-1.2128625868393592
8.190897,5.6843593480031736,-5.830011453329172,-1.7664664778547046
8.200821,5.531402083629255,-4.40247357612332,-2.2746533995343983
8.210746,5.273247470453279,-2.9050792152356255,-2.7249915394336424
8.220671,4.925768223976733,-1.3931394434098425,-3.1075811896956473
8.230596,4.5065058425846125,0.07872140873771835,-3.4151869061533153
8.24052,4.033885319854532,1.458604248684437,-3.643234770387798
8.250445,3.526449167503831,2.6992105167060876,-3.7896937314324313
8.26037,3.002141395897358,3.759488286067208,-3.854864367322391
8.270294,2.4776678312273197,4.605995134923506,-3.8411003090047333
8.280219,1.9679541074635793,5.213937002423725,-3.7524875057315463
8.290144,1.4857171209866398,5.567856240661975,-3.5945049665703817
8.30006775,1.041159921653613,5.6619562788241735,-3.373687943561774
8.30999275,0.6417941935945257,5.500064205065412,-3.0973109986386054
8.31991775,0.292388924812156,5.095245684002025,-2.7731043549107772
8.32984275,-0.004961170967776935,4.469098558263808,-2.4090127791199123
8.33976675,-0.2506582640584459,3.650761870345213,-2.0130023120791227
8.34969175,-0.4473294429112369,2.6756855838751097,-1.5929166533124701
8.35961675,-0.5994774710847885,1.584212773750411,-1.1563820090117123
8.36954075,-0.7130738061300758,0.42003040367320305,-0.7107567134297073
8.37946575,-0.7951149768298797,-0.7714529450718915,-0.2631197390653725
8.38939075,-0.8531642278982893,-1.9447437245412473,0.1797099687984022
8.39931575,-0.8949003471503783,-3.0558571647136916,0.6111336546210848
8.40923975,-0.9276947390290529,-4.0638136738043436,1.024724749405566
8.41916475,-0.958236046926371,-4.9319877064899424,1.4141862087580652
8.42908975,-0.9922189088317603,-5.629264668218286,1.7733264900693217
8.43901375,-1.0341097660517828,-6.130968811107741,2.0960657232238873
8.44893875,-1.0869981530045087,-6.419534073083122,2.3764806359941257
8.45886375,-1.1525368432702874,-6.484900173229091,2.6088930796635634
8.46878775,-1.2309690202650192,-6.324627565726551,2.7880030424152387
8.47871275,-1.3212357504949281,-5.943736512922333,2.9090631227940227
8.48863775,-1.4211528594313432,-5.35428695205197,2.968087709140659
8.49856275,-1.5276430609139626,-4.574726373622326,2.9620866982209053
8.50848675,-1.6370069141826136,-3.6290419821812567,2.8893106560282913
8.51841175,-1.7452148453234242,-2.545760401810999,2.7494920836610035
8.52833675,-1.8482020539719028,-1.3568426994593838,2.5440660725006077
8.53826075,-1.9421486400758434,-0.09652436034939786,2.2763531604811678
8.54818575,-2.0237287031815527,1.1998508562293073,1.9516875750900697
8.55811075,-2.0903143731896727,2.4969572920031085,1.577475235780569
8.56803575,-2.1401235512296544,3.7605331912820827,1.16316795204815
8.57795975,-2.1723034195182787,4.958311928214616,0.7201432745833747
8.58788475,-2.1869454317506634,6.0608127900085265,0.2614834193383201
8.59780975,-2.185031456950882,7.041974425273753,-0.19834854973721078
8.60773375,-2.1683149132769857,7.879623333641991,-0.6439317186086649
8.61765875,-2.139144912466265,8.555778729314394,-1.0594001421342063
8.62758375,-2.1002453909878627,9.056803193189928,-1.4290300759322947
8.63750775,-2.0544646417648207,9.373415288425285,-1.7378801371333097
8.64743275,-2.0045132947240423,9.500585468232728,-1.9724571632861365
8.65735775,-1.952710378971182,9.437340015907203,-2.1213756978039586
8.66728275,-1.9007574197798829,9.186499366234885,-2.175975886991033
8.67720675,-1.8495593575750355,8.754376894103714,-2.130863899100785
8.68713175,-1.7991082152117375,8.15046203128752,-1.984341127859421
8.69705675,-1.7484408384195578,7.387107429782395,-1.738693146468742
8.70698075,-1.6956759892649564,6.479234196316187,-1.4003158718871902
8.71690575,-1.6381292545143362,5.4440626706508075,-0.9796637911307787
8.72683075,-1.5724975073447776,4.300869626474731,-0.4910127013812784
8.73675575,-1.49509883875725,3.070766856806567,0.0479630443192041
8.74667975,-1.4021495556068344,1.7764913704553071,0.6167910313370861
8.75660475,-1.2900574517684382,0.44219413352592085,1.1929624653072328
8.76652975,-1.1557103587402646,-0.906787500551163,1.7528278842896248
8.77645375,-0.9967408416302448,-2.2441888373975223,2.272587853618396
8.78637875,-0.811751098841671,-3.5431223522271256,2.7293289135414716
8.79630375,-0.6004856405897679,-4.776439044042836,3.102048735269772
8.80622775,-0.3639425307237754,-5.917154248294581,3.3726141036207666
8.81615275,-0.10441687168288166,-6.938941040493361,3.526600350273766
8.82607775,0.1745269124235097,-7.8166895190866486,3.5539694432690285
8.83600275,0.46815436030378166,-8.527125214512914,3.4495544132370353
8.84592675,0.7707288594126609,-9.049474719651117,3.2133289798833506
