Time (s),Acceleration x (m/s^2),Acceleration y (m/s^2),Acceleration z (m/s^2)
9.004362861,-0.10501435245931148,-0.4384920495086639,0.1908611228384253
9.009362861,-0.025026426676594785,-0.4690065827293907,0.14382182699818602
9.014362861,0.055230795651561596,-0.500735238560354,0.09862872267547107
9.019362827,0.13474095899739613,-0.5340250021213698,0.057014463193849126
9.024362827,0.21251100590843439,-0.5691869832326379,0.020642949472926442
9.029362827,0.28758847008214294,-0.6064844656183538,-0.008929086659587124
9.03436286,0.3590774374895368,-0.6461219040348599,-0.030288152037300755
9.03936286,0.4261528154607045,-0.6882351707258131,-0.04219684722537983
9.04436286,0.48807259882966353,-0.7328833378296057,-0.04362270861772093
9.049362826,0.5441878820197844,-0.7800422628360751,-0.033762334594189924
9.054362792,0.593950437926972,-0.829600217782267,-0.012060212655769852
9.059362758,0.6369177683613567,-0.8813557660868155,0.021778195579372744
9.064362758,0.6727556220806548,-0.9350180397187471,0.06777940021051196
9.069362791,0.7012380666032078,-0.9902095006909017,0.12570098647613584
9.074362824,0.7222452801884046,-1.0464711845368344,0.19503684047807937
9.079362857,0.7357592953917653,-1.1032703240167039,0.2750283052888319
9.08436289,0.7418579748093092,-1.1600101476650295,0.36468092640342126
9.08936289,0.7407075346428771,-1.2160415505035456,0.46278630402079435
9.094362856,0.7325539539396557,-1.2706762529020714,0.5679484371473682
9.099362822,0.717713618013777,-1.3232010057372798,0.6786138256234509
9.104362822,0.6965635457317041,-1.3728923707057035,0.7931044984105554
9.109362822,0.6695315439614471,-1.4190316054145355,0.9096530681959042
9.114362855,0.6370866179458614,-1.4609192107953737,1.0264388800360602
9.119362855,0.599729940047436,-1.4978887466028512,1.141624327812715
9.124362855,0.5579866371497959,-1.5293195808369622,1.2533904546408081
9.129362821,0.512398597957234,-1.5546483038666288,1.3599710266197922
9.134362787,0.4635184291585237,-1.5733786037394546,1.4596843662093089
9.139362753,0.4119046110603077,-1.5850894635908632,1.550962343917422
9.144362753,0.35811782652953367,-1.5894416033773737,1.632376046354641
9.149362786,0.30271836725730333,-1.5861821438854398,1.7026577567423933
9.154362819,0.2462644604245011,-1.5751475188971782,1.7607189937133247
9.159362852,0.18931130682399022,-1.5562647010190331,1.8056644509547057
9.164362852,0.13241057942786433,-1.5295508392654282,1.8368017618636108
9.169362852,0.07611010353229367,-1.495111433191288,1.85364708072459
9.174362818,0.020953432254545146,-1.4531371880868647,1.8559265286977031
9.179362151,-0.03252095159537357,-1.4038997050026807,1.8435736055356486
9.184361251,-0.08378103607468189,-1.347746154547564,1.816722724801772
9.189360384,-0.13230345599207965,-1.285093063812619,1.7756990999382392
9.194359484,-0.17757655417646778,-1.2164193155070666,1.7210052969730423
9.199358584,-0.21910437466989452,-1.1422584257281658,1.6533048782440098
9.204358184,-0.2564115723774629,-1.0631901416540521,1.5734036841271342
9.209358184,-0.2890491634835117,-0.9798313914770254,1.4822294205610504
9.214358184,-0.3166009840578898,-0.8928266311100227,1.380810314189358
9.219358184,-0.33869067455847224,-0.8028376657914422,1.2702536361226444
9.22435815,-0.3549889698454923,-0.7105330752084309,1.1517248590153426
9.22935815,-0.36522105134989546,-0.6165774301364515,1.0264280972030213
9.23435815,-0.3691737126520105,-0.5216205467162767,0.8955883041962921
9.239358183,-0.3667021032419722,-0.42628707113402425,0.7604355000189819
9.244357516,-0.35773584616147713,-0.3311667150367229,0.6221911105734315
9.249357516,-0.34228436774640053,-0.2368054674190734,0.4820563508207224
9.254357482,-0.32044132244110046,-0.1436980928467716,0.3412024839423225
9.259357482,-0.2923880323832303,-0.05228219109028479,0.20076273336805608
9.264357482,-0.2583958818194393,0.03706595890250212,0.06182559759884921
9.269356615,-0.21882760627095582,0.12403361658980344,-0.07457069644700004
9.274356615,-0.17413739697426983,0.20837178888780294,-0.2074428757975651
9.279356615,-0.12486970832783413,0.28989345594726024,-0.33586671958696923
9.284356615,-0.07165661790995781,0.3684699392436852,-0.4589808487045642
9.289356615,-0.015213553060661992,0.4440256352204573,-0.5759904590641618
9.294356615,0.04366682716229813,0.5165314248135244,-0.686171200091532
9.299356581,0.10412281132894509,0.5859971380056059,-0.7888733196747351
9.304355914,0.16523406763803536,0.6524634958602352,-0.8835260913023534
9.30935538,0.22603445426507685,0.7159939644483827,-0.9696424205329466
9.314355413,0.28552722528593455,0.7766669325144703,-1.0468234130731833
9.319355413,0.3427025065638843,0.8345685679578188,-1.114762593288432
9.324355413,0.39655675705685756,0.8897866217691425,-1.173249405305061
9.329356046,0.4461137777529208,0.9424053410609651,-1.2221716189327327
9.334356912,0.4904467001236518,0.9925015380192783,-1.2615163008730927
9.339357812,0.5287002876778721,1.0401417531143142,-1.2913690900581096
9.344358745,0.5601128213663585,1.0853803619467548,-1.3119116194797713
9.349359678,0.5840368141726797,1.1282584165953837,-1.3234170378508106
9.354360078,0.5999578132082833,1.1688029915633014,-1.326243686435766
9.359360078,0.6075105962909536,1.2070268226903995,-1.3208270671928262
9.364360078,0.6064921463609109,1.2429280780689533,-1.307670291958229
9.369360044,0.5968708809378686,1.2764901692018695,-1.287333229731232
9.374360044,0.5787917175808671,1.3076815807509008,-1.2604205771377865
9.37936001,0.552576666864781,1.3364557511682802,-1.2275690763857197
9.38436001,0.5187207615202108,1.3627510614440879,-1.1894341068023158
9.38936001,0.47788325545821236,1.3864909796038998,-1.1466758900183016
9.39436071,0.430874161370396,1.407584368948505,-1.099945580208507
9.39936071,0.3786363408761659,1.425925913436994,-1.0498715578692888
9.40436071,0.3222235142055824,1.4413965664615414,-0.997046300400064
9.409360676,0.26277471233611704,1.453863912620539,-0.9420142547278956
9.414360642,0.20148584709720127,1.4631823616867516,-0.88526117737198
9.419361508,0.13957921589040304,1.4691931712006312,-0.8272054288341532
9.424361508,0.07827187747831005,1.4717244041707596,-0.7681917050783127
9.429361541,0.018743923928280868,1.4705910453470048,-0.7084876515258639
9.434361574,-0.03789227695319557,1.465595595679579,-0.6482837288448136
9.439361607,-0.09062079139335653,1.4565295182036364,-0.5876965833587052
9.444361607,-0.13854775459753413,1.4431759078868396,-0.5267760201547046
9.449361607,-0.18092301371979153,1.425313700401571,-0.4655154889384741
9.45436224,-0.21715703282396404,1.402723624368298,-0.4038657812708513
9.45936274,-0.2468325374424353,1.3751959482544005,-0.3417514200351503
9.46436274,-0.26971063190480754,1.3425398944969855,-0.2790890209872508
9.469362773,-0.28573138275339555,1.3045944147281867,-0.21580674617245893
9.474362806,-0.29500910111302175,1.2612398675028564,-0.15186386834506158
9.479362806,-0.297822758863616,1.2124100321369968,-0.08726943332422811
9.484362806,-0.2946021295634795,1.1581038352860697,-0.02209904335456952
9.489362772,-0.28591035322502606,1.0983961568956677,0.04349111778927977
9.494362738,-0.27242368621495894,1.0334471112468073,0.10925374917185389
9.499362704,-0.2549092180874764,0.9635092594617217,0.17484393326063072
9.504362704,-0.2342013214097971,0.8889322961061386,0.2398170138893122
9.509362737,-0.21117755495537097,0.8101648597071377,0.30363098221177254
9.51436277,-0.1867346740293847,0.7277532409173493,0.3656533007579634
9.519362803,-0.1617653257856283,0.6423368979375251,0.4251719176404419
9.524362803,-0.13713593254002757,0.5546408301632989,0.4814100739107128
9.529362803,-0.11366619731722384,0.46546499947439873,0.533544387516659
9.534362769,-0.0921106029213004,0.37567111467920733,0.5807256043433955
9.539362769,-0.07314221573757534,0.28616719878938623,0.6221013370889739
9.544362769,-0.057339044727815494,0.19789043292449957,0.6568400637969077
9.549362802,-0.04517314213724181,0.11178881062651612,0.6841556286855424
9.554362802,-0.037002565003433054,0.02880214381375099,0.7033314788826951
9.559362802,-0.03306624779782209,-0.05015705695927046,0.7137438826459969
9.564362802,-0.03348176968983884,-0.12422234114622135,0.7148834075267932
9.569362802,-0.03824593704599909,-0.19259127391151865,0.7063739895100539
9.574362802,-0.047238042327783406,-0.25454219462640965,0.6879889952645715
9.579362768,-0.0602256033074224,-0.30944942967348016,0.659663769142621
9.584362734,-0.0768723333455052,-0.3567966523720906,0.6215042648700868
9.589362734,-0.09674805003895237,-0.3961881188031293,0.5737914874806813
9.594362767,-0.11934020195094816,-0.4273575400490815,0.5169816081398215
9.5993628,-0.14406668491852395,-0.45017438151132794,0.45170175319960487
9.6043628,-0.17028963090042298,-0.46464741211557525,0.3787415984635626
9.6093628,-0.19732987997863133,-0.4709253647473526,0.29904101223265134
9.614362766,-0.22448188235648645,-0.4692946188691176,0.21367408254331782
9.619362732,-0.2510288124219434,-0.46017388047178975,0.12382993550412241
9.624362698,-0.27625770349782175,-0.444105913839969,0.03079080637409911
9.629362698,-0.29947442670456476,-0.4217464708287137,-0.06409213153827037
9.634362731,-0.3200183414511395,-0.39385066020419895,-0.15942463776455115
9.639362764,-0.33727644066048384,-0.3612570946966691,-0.2537963997022602
9.644362797,-0.3506968020235376,-0.32487024003219556,-0.3458085493379889
9.649362797,-0.3598011379420678,-0.285641462707046,-0.43410108420203025
9.654362797,-0.3641962134112965,-0.24454932622341075,-0.5173795767733467
9.659362763,-0.3635838770600014,-0.20257971312008785,-0.5944405771400655
9.664362763,-0.3577694312974424,-0.16070634701233902,-0.6641951514103613
9.669362763,-0.3466680584433676,-0.11987225224825,-0.7256900472974186
9.674362796,-0.33030902531408446,-0.08097262096519103,-0.7781260304708975
9.679362796,-0.30883741217295796,-0.04483946569986637,-0.8208729841935003
9.684362796,-0.28251315533808635,-0.012228330237437498,-0.853481408898449
9.689362762,-0.25170725678506706,0.01619277791126174,-0.8756900026012315
9.694362728,-0.2168950968955471,0.03985217364233456,-0.887429057321282
9.699362694,-0.17864688319937147,0.058281028236298583,-0.8888194817036127
9.704362694,-0.13761537232990542,0.07111774763545006,-0.8801673619462044
9.709362694,-0.0945211095413494,0.07811033354125461,-0.8619541002966751
9.714362727,-0.050135537603244434,0.07911688400816043,-0.8348223134400395
9.71936276,-0.0052624330370164285,0.07410438916882503,-0.7995578186139811
9.724362793,0.03928177182606318,0.0631459632743107,-0.7570681710004463
9.729362793,0.08268813638029751,0.04641663143244376,-0.7083583342909403
9.734362793,0.12417512463307757,0.024187762496136925,-0.6545041643651626
9.739362759,0.16300755884986243,-0.0031797871877250338,-0.5966244637388964
9.744362725,0.19851391889015643,-0.03524377588339458,-0.5358524233473997
9.749362691,0.2301013754089107,-0.07148989138778758,-0.4733073094823237
9.754362691,0.25726807522477446,-0.11134223888645946,-0.41006727506876217
9.759362724,0.2796123570270333,-0.15417493327591053,-0.34714416843534607
9.764362757,0.29683874315813114,-0.19932467565075052,-0.2854611680772051
9.76936279,0.3087607091823327,-0.24610412177850285,-0.22583397864144825
9.77436279,0.3153003660632681,-0.2938157666680868,-0.16895617821021358
9.77936279,0.316485296137922,-0.34176598593726687,-0.11538911649347242
9.784362756,0.3124428628930406,-0.3892788059333819,-0.06555654417399151
9.789362756,0.3033923659414312,-0.43570893478406847,-0.0197439292071148
9.794362089,0.28963543853118695,-0.480453587332078,0.021897787624806594
9.799362122,0.27154508915212916,-0.5229626841686678,0.05934440783102321
9.804362288,0.24955377476260177,-0.5627470971451213,0.09268718332147384
9.809362288,0.22414086361775767,-0.599384741524654,0.12211860579207888
9.814362254,0.19581980576238298,-0.6325244624583903,0.1479158959382347
9.81936222,0.1651252884223422,-0.6618878107738689,0.17042281821993027
9.824362186,0.13260062241946702,-0.6872689297777602,0.19003044227421984
9.829362186,0.09878559053866291,-0.7085328637471973,0.2071574648271548
9.834362186,0.06420498852941786,-0.7256126392874069,0.2222307028270432
9.839362219,0.02935809684482922,-0.7385054610001504,0.23566637227810763
9.844362252,-0.005290674928019219,-0.7472683108116563,0.24785277454689433
9.849362285,-0.03931974018352478,-0.7520131616035558,0.25913501224594426
9.854362285,-0.07235668621315225,-0.7529019305573148,0.2698023342159557
9.859362285,-0.1040828799312036,-0.7501412253730252,0.28007864687307177
9.864362251,-0.13423625118514979,-0.7439768909587504,0.29011661590719956
9.869362251,-0.1626122464238327,-0.734688349858358,0.29999561747797493
9.874362251,-0.18906301162056482,-0.7225827419516266,0.3097235942432236
9.879362284,-0.21349492298549916,-0.7079888969713439,0.31924265154912956
9.884362284,-0.23586463699434176,-0.6912512048373435,0.32843801792007554
9.889362284,-0.25617387646083506,-0.6727234741619924,0.3371498105091326
9.894362284,-0.27446320340480473,-0.6527628833793891,0.34518690019217524
9.899362284,-0.2908050480504176,-0.6317241301943541,0.35234206636228466
9.904362284,-0.305296263217115,-0.6099538738397775,0.35840757100600656
9.90936225,-0.31805045424520184,-0.5877855428112957,0.3631902687687556
9.91436225,-0.32919030068687216,-0.5655345520884669,0.3665254069953792
9.91936225,-0.338840046509849,-0.5434939438832841,0.36828835757026435
9.924362283,-0.3471183014615317,-0.5219304405390304,0.3684036588418205
9.929362283,-0.3541312749866393,-0.5010808824915453,0.3668509253880332
9.934362283,-0.3599665566026628,-0.481149022597738,0.36366739477064924
9.939362249,-0.36468755860694785,-0.4623026636455812,0.35894710729973833
9.944362882,-0.36832874283240713,-0.44467115853403766,0.3528369372144108
9.949362848,-0.3708917591927131,-0.42834333845522066,0.3455298905952322
9.954362681,-0.3723426282109993,-0.4133659855488775,0.3372562385203436
9.959362681,-0.3726101004856778,-0.3997430122039957,0.3282731519320377
9.964362714,-0.37158531935264133,-0.38743553781404105,0.31885354382085307
9.969362747,-0.3691228951249656,-0.3763630556991958,0.3092748069558356
9.97436278,-0.36504346872050314,-0.3664058530893121,0.2998080672910826
9.97936278,-0.3591377999079238,-0.3574087862613779,0.29070846373314946
9.98436278,-0.3511723624425354,-0.3491864271744181,0.28220682854159396
9.989362746,-0.3408963673227999,-0.34152949690651785,0.2745029981916083
9.994362746,-0.32805007011371434,-0.3342123958264295,0.2677608517482748
9.999362746,-0.3123741550800775,-0.32700154156919864,0.26210506775010645
10.00436278,-0.2936199362873279,-0.31966414462972875,0.25761951789481824
10.00936278,-0.2715600821917306,-0.3119769989790641,0.2543471742965637
10.01436278,-0.24599956027956105,-0.30373485044525494,0.25229138820497055
10.01936274,-0.21678651136493388,-0.29475793233835124,0.25141839024952506
10.02436271,-0.18382279377144514,-0.2848983234017273,0.2516608542423522
10.02936268,-0.14707397707061703,-0.2740448794608601,0.2529223506569421
10.03436268,-0.10657860256897157,-0.262126604226266,0.2550824901473595
10.03936271,-0.06245655155438168,-0.24911444039482647,0.25800252571142934
10.04436274,-0.014916361616620891,-0.23502156239432465,0.2615311516874178
10.04936278,0.03573869961160429,-0.2199023224295476,0.26551021609773473
10.05436278,0.08910605188975632,-0.2038500336639459,0.2697800551497102
10.05936278,0.144681031872652,-0.18699376765361395,0.2741841689134836
10.06436274,0.20185632353340435,-0.16949430375788996,0.27857298980208245
10.06936274,0.2599240221387467,-0.1515393087346305,0.28280655438222657
10.07436274,0.3180807685266765,-0.1333377627743,0.28675597352277055
10.07936278,0.3754363467497251,-0.11511360299803497,0.2903036980346126
10.08436281,0.4310260439692967,-0.09709854223750282,0.29334268344334513
10.08936281,0.48382692662171484,-0.07952404723947472,0.295774654015488
10.09436281,0.5327779947445238,-0.06261252489244795,0.2975077414776949
10.09936281,0.5768039480567455,-0.046567858397041216,0.29845382254025443
10.10436281,0.6148420529678797,-0.03156554343799274,0.29852590119897177
10.10936281,0.6458713637892213,-0.017742782593793655,0.2976358789545522
10.11436277,0.6689433468872057,-0.005188991291556322,0.29569302979763706
10.11936277,0.683212800603616,0.006062761086317554,0.2926034470498889
10.12436277,0.6879678674113384,0.016042815826395922,0.288270656829923
10.12936281,0.6826579033520397,0.024849942021010405,0.28259750186252924
10.13436281,0.6669180044757956,0.0326538023432337,0.27548929650914034
10.13936281,0.6405890890041591,0.039694454550527225,0.26685814832140825
10.14436277,0.6037325935443837,0.04627860434109729,0.256628243015299
10.14936274,0.556639056682658,0.05277248619459993,0.24474180747082627
10.1543627,0.4998301246366553,0.05959143572024554,0.2311654053340415
10.15936271,0.4340538030926493,0.06718641897911667,0.21589618498036947
10.16436274,0.3602730690650901,0.0760279835640687,0.1989676900043153
10.16936277,0.27964822007792106,0.08658827087003355,0.18045485496785543
10.1743628,0.193513561593207,0.09932186033454052,0.16047783885700198
10.17936214,0.10334921573901736,0.1146462948544482,0.1392043915546672
10.18436124,0.010748976606940254,0.13292316021634942,0.11685050342833442
10.1893603,-0.0826147600466672,0.15444056274290383,0.09367915524615598
10.1943594,-0.1750279034542208,0.17939777491112058,0.06999706436606092
10.1993585,-0.2647723043060226,0.2078927086188253,0.046149409807436516
10.20435854,-0.3501630433157945,0.2399127408831872,0.02251260722395215
10.20935857,-0.42958436655535387,0.27532926525792817,-0.000514711168607327
10.21435867,-0.5015233706734474,0.3138961800061427,-0.02252228038800661
10.21935864,-0.5646006760768773,0.3552523572953909,-0.04310005044966963
10.2243586,-0.6175974782586766,0.39892797453384193,-0.06185093615255855
10.2293579,-0.6594785273758995,0.44435443855937923,-0.07840404989119237
10.23435787,-0.6894107449366526,0.49087750403497626,-0.09242794699151381
10.23935787,-0.7067773374134324,0.537773085184593,-0.10364336936932839
10.2443579,-0.7111874062873167,0.584265187808525,-0.11183494240854709
10.24935793,-0.7024811794851517,0.629545345922668,-0.1168612701421491
10.25435723,-0.6807310944604946,0.6727929318078444,-0.11866289538265422
10.25935723,-0.646239039721361,0.7131957163281955,-0.11726765344542821
10.26435723,-0.5995301023601005,0.7499700842099335,-0.11279305431316515
10.2693572,-0.5413431721810038,0.7823803524439202,-0.10544547383136874
10.2743572,-0.4726187225881673,0.8097566956841296,-0.09551610656007509
10.2793572,-0.3944840341034053,0.8315112484394738,-0.08337381294467307
10.28435723,-0.30823606093222583,0.8471520283549813,-0.06945516302611976
10.28935723,-0.21532207658041888,0.8562944050453954,-0.05425212294825487
10.29435723,-0.11731818060765899,0.8586699207903925,-0.038297939240995615
10.29935723,-0.01590571317042897,0.8541323499504834,-0.022151844926319962
10.30435723,0.08715438429906504,0.8426609627037518,-0.006383240843585824
10.30935723,0.19004919705974163,0.8243610366897505,0.00844400236579406
10.3143572,0.2909433236294002,0.7994617376712413,0.02178651753561298
10.3193572,0.3880099943354228,0.768311565039836,0.03313515435787388
10.3243572,0.47946348134415867,0.7313716247234422,0.042026985620490946
10.3293579,0.5635923463663185,0.6892070445253679,0.04805525545068558
10.33435883,0.6387929749009745,0.6424768804106724,0.05087701440709277
10.33935973,0.7036027728363802,0.5919228752791322,0.05021827718475505
10.3443606,0.7567323526692701,0.5383574256449002,0.04587662747723547
10.34936146,0.7970960070137846,0.48265108871363566,0.03772128801795038
10.35436146,0.8238397490994215,0.42571992461167585,0.025690777828813585
10.35936146,0.8363661884707406,0.3685129173360242,0.009788393131104727
10.3643614,0.8343555059485745,0.3119996543764081,-0.009924135159476452
10.3693614,0.8177818032649478,0.2571583704457666,-0.03333435120613993
10.3743614,0.7869241416737104,0.20496437877485185,-0.06028762212198388
10.37936206,0.7423716592340275,0.1563788304211479,-0.09059596350381544
10.38436206,0.6850222686400393,0.11233766721111256,-0.12404659414050047
10.38936206,0.6160745780240324,0.07374057739704223,-0.1604097190136143
