Time (s),Acceleration x (m/s^2),Acceleration y (m/s^2),Acceleration z (m/s^2)
9.001781468,-0.48635467283193545,0.13851398519751032,1.2074786090490137
9.006536052,-0.39230376666484434,-0.19962559827163687,1.3673984820666865
9.011290635,-0.297131754774289,-0.5349373612718118,1.526305735953973
9.016045218,-0.2009617281581248,-0.8658946050795012,1.6836972575414597
9.020799854,-0.1039200953356797,-1.1910021245690405,1.8390665187113104
9.025554437,-0.006136939083589075,-1.5088071474086149,1.9919054856911365
9.03030902,0.0922536210450411,-1.8179099234978366,2.141706605006337
9.035063656,0.19111307007503928,-2.1169738670784484,2.287964865189763
9.039818239,0.29029815181599367,-2.4047351561259234,2.4301799314359487
9.044572823,0.3896605440421217,-2.6800116969643724,2.5678583482347044
9.049327406,0.4890465618810569,-2.9417113667537182,2.7005158027129617
9.054082041,0.5882968958813142,-3.1888394526967327,2.8276794390599083
9.058836625,0.6872463906932863,-3.420505214516211,2.948890212095276
9.063591208,0.785723870063388,-3.6359275058700486,3.0637052658159085
9.068345791,0.8835520139107624,-3.834439400737464,3.171700320657544
9.073100427,0.9805472935559357,-4.015491782208805,3.2724720512833456
9.07785501,1.0765199715637568,-4.1786558633118505,3.365640435019539
9.082609593,1.1712741730014125,-4.323624622277914,3.450851049671479
9.087364177,1.2646080350842217,-4.4502131477655755,3.527777298452358
9.092118812,1.356313942123429,-4.558357902792172,3.5961225392440235
9.096873395,1.4461788523740424,-4.648114929238906,3.655622095496738
9.101627979,1.5339847228016668,-4.719657027544654,3.7060451268474464
9.106382614,1.6195090369584881,-4.773269958320466,3.7471963390165506
9.111137198,1.7025254401197927,-4.809347723831631,3.778917514676203
9.115891781,1.7828044846527682,-4.828386997355141,3.801088849646359
9.120646364,1.8601144873534163,-4.830980777116125,3.8136300818046003
9.125401,1.9342224992736412,-4.81781134868617,3.8165014033172335
9.130155583,2.0048953874264734,-4.789642645310388,3.8097041500510636
9.134910166,2.0719010267282343,-4.747312099612165,3.793281265169743
9.13966475,2.135009599597699,-4.691722082556295,3.7673175368332723
9.144419385,2.1939949997353394,-4.623831026520843,3.731939612472309
9.149173968,2.2486363356868857,-4.544644328942358,3.6873157941470374
9.153928552,2.2987195287938667,-4.455205131374141,3.633655620883557
9.158683135,2.34403899899562,-4.356585066055348,3.5712092445515244
9.16343777,2.384399430622819,-4.249875058356003,3.5002666058669503
9.168192354,2.419617608770138,-4.136176268868655,3.4211564166275923
9.172946937,2.4495243150345423,-4.016591253592457,3.3342449535056096
9.17770152,2.4739662693617945,-3.8922154147322607,3.23993466782082
9.182456156,2.492808102479867,-3.7641288082423743,3.138662614866401
9.187210739,2.5059343409475163,-3.6333883675007317,3.0308987056969703
9.191965323,2.5132513842742568,-3.501020595511066,2.917143783904955
9.196719958,2.514689451000442,-3.368014770897203,2.7979275298027257
9.201474541,2.5102044682373355,-3.2353167057759036,2.673806194489558
9.206229125,2.499779877118292,-3.103823086481073,2.5453601663635017
9.210983708,2.483428325011172,-2.9743764211642496,2.4131913726410166
9.215738343,2.461193214274068,-2.8477606115867884,2.277920518404695
9.220492927,2.4331500769196883,-2.7246971599895367,2.140184165811581
9.22524751,2.3994077449257136,-2.6058420158092317,2.0006316566862217
9.230002093,2.360109287158997,-2.4917830612563208,1.859921883075333
9.234756729,2.31543268592226,-2.3830382294382475,1.7187199125067092
9.239511312,2.265591228859948,-2.280054243853155,1.5776934774757074
9.244265895,2.2108335952436327,-2.1832059637036045,1.4375093417712272
9.249020531,2.151443619374324,-2.0927963155723504,1.2988295593735348
9.253775114,2.087739717870352,-2.0090567885389468,1.1623076446214922
9.258529698,2.020073971846594,-1.9321484667733229,1.0285846750640333
9.263284281,1.94883085934758,-1.8621635709892612,0.898285350863173
9.268038916,1.8744256378121937,-1.7991274778384483,0.7720140368262017
9.2727935,1.7973023807769253,-1.7430011843431548,0.6503508151327815
9.277548083,1.717931677426173,-1.693684182791308,0.5338475785747007
9.282302666,1.6368080079197571,-1.6510177101568915,0.4230241955931412
9.287057302,1.5544468116048094,-1.6147883350684626,0.31836477952176045
9.291811885,1.4713812691832633,-1.5847318446260856,0.22031409518630138
9.296566468,1.388158823599508,-1.5605373929485684,0.1292741363708965
9.301321104,1.3053374677957388,-1.5418518732039252,0.04560090766372101
9.306075687,1.2234818305286246,-1.5282844750270805,-0.030398556125285598
9.31083027,1.143159094125781,-1.5194113896546892,-0.09846890039860882
9.315584854,1.064934780358953,-1.5147806258030516,-0.1584088593842121
9.320339489,0.9893684425018612,-1.5139169002728177,-0.2100733324434901
9.325094073,0.9170093031105189,-1.5163265684637548,-0.25337509906863004
9.329848656,0.8483918781031577,-1.5215025613903026,-0.28828614533785596
9.334603239,0.7840316283196328,-1.5289292973580821,-0.3148385766778549
9.339357875,0.7244206799056567,-1.53808753813833,-0.333125094183698
9.344112458,0.6700236546028492,-1.5484591612005112,-0.34329901447410494
9.348867041,0.6212736503462091,-1.5595318212717812,-0.34557381610782045
9.353621625,0.5785684114928966,-1.570803476133663,-0.340222198940166
9.35837626,0.542266726545052,-1.5817867531071836,-0.32757464644053225
9.363130843,0.5126850894012374,-1.5920131341027157,-0.3080174849038917
9.367885427,0.49009465799827734,-1.6010369384208478,-0.2819904376496708
9.372640062,0.4747185417144472,-1.6084390837010487,-0.2499836766811239
9.377394645,0.46672944612277284,-1.613830606551232,-0.21253437884694618
9.382149229,0.46624770063243237,-1.6168559254818078,-0.1702227982738248
9.386903812,0.4733396912500572,-1.6171958298368616,-0.1236678717031016
9.391658448,0.48801671712043787,-1.6145701794810035,-0.07352237839633105
9.396413031,0.5102342856048953,-1.6087403010758372,-0.02046768163850265
9.401167614,0.5398918562934145,-1.5995110678763698,0.03479191508004761
9.405922198,0.5768330393793718,-1.5867326511114264,0.09153515698345303
9.410676833,0.620846248244398,-1.5703019322026992,0.14903012354546832
9.415431416,0.6716658001550747,-1.5501635663323117,0.20654075339416833
9.420186,0.728973453114219,-1.5263106891691467,0.2633335432213131
9.424940635,0.7924003615679355,-1.498785259865985,0.3186843488702029
9.429695218,0.8615294290616358,-1.4676780347021094,0.37188521238765715
9.434449802,0.935898032053465,-1.4331281669626188,0.4222511363379355
9.439204385,1.0150010858168415,-1.3953224298509392,0.46912672567439534
9.44395902,1.098294420592739,-1.3544940604836577,0.5118926175956662
9.448713604,1.185198433842643,-1.3109212243776593,0.5499716208831522
9.453468187,1.275101982615737,-1.2649251013625438,0.5828344881538177
9.458222823,1.3673664787328657,-1.2168675955854384,0.6100052472627565
9.462977406,1.4613301487868275,-1.1671486742641743,0.6310660217880907
9.467731989,1.5563124209442574,-1.116203342117529,0.6456612751758553
9.472486573,1.6516184012530348,-1.0644982609633193,0.653501418760232
9.477241208,1.7465434035975893,-1.0125280268064683,0.6543657305452656
9.481995791,1.8403774995298712,-0.9608111197975254,0.6481045393866035
9.486750375,1.9324100568064877,-0.9098855456681486,0.6346406380930131
9.491504958,2.021934238398654,-0.8603041905740353,0.6139698989750901
9.496259593,2.1082514367860483,-0.8126299146253049,0.5861610763992565
9.501014177,2.190675621252423,-0.767430412697761,0.5513547927341169
9.50576876,2.2685375784276873,-0.725272874367335,0.5097617163646001
9.510523395,2.341189028275313,-0.6867184780131359,0.46165995277559246
9.515277979,2.4080065990284862,-0.65231675734222,0.4073916816335774
9.520032562,2.4683956453097102,-0.6225998818425053,0.34735908394823556
9.524787145,2.521793894018156,-0.5980768959626438,0.2820196135130188
9.529541781,2.567674902750861,-0.5792279650800171,0.2118806757574992
9.534296364,2.605551315685682,-0.5664986794276198,0.13749378484797573
9.539050948,2.634977902033867,-0.5602944699505029,0.05944827637496656
9.543805531,2.65555436230308,-0.5609751923806986,-0.021635341660917556
9.548560166,2.666927887576607,-0.5688499374901832,-0.10511231252749957
9.55331475,2.6687954567051086,-0.5841721263694581,-0.19032073872311026
9.558069333,2.660905855695272,-0.6071349496017643,-0.27658878144589133
9.562823968,2.6430614027325197,-0.6378672083336134,-0.3632418573596022
9.567578552,2.6151193613229977,-0.6764296135001452,-0.4496097381333108
9.572333135,2.57699302313713,-0.7228115969035194,-0.5350334596542365
9.577087718,2.528652441472783,-0.7769286845615688,-0.6188719522793714
9.581842354,2.4701247960994888,-0.8386204788778283,-0.7005083124310676
9.586596937,2.4014943709028014,-0.9076492918511603,-0.779355649279916
9.59135152,2.3229021273996,-0.9836994667689435,-0.8548624559394141
9.596106156,2.2345448597584525,-1.0663774205310854,-0.9265174691486692
9.600860739,2.136673920151222,-1.1552124328098519,-0.9938539924647002
9.605615323,2.0295935068153064,-1.2496582015705227,-1.0564536650851553
9.610369906,1.913658511034367,-1.3490951770290707,-1.11394966247921
9.615124541,1.7892719234431909,-1.4528336779296818,-1.1660293173118206
9.619879125,1.6568818048010345,-1.5601177851479002,-1.212436150925766
9.624633708,1.516977831830214,-1.6701299981505626,-1.2529713080186635
9.629388291,1.3700874350241454,-1.7819966298875858,-1.2874943910993042
9.634142927,1.2167715525342144,-1.8947939054096945,-1.3159236973598591
9.63889751,1.057620032188092,-2.0075547190998795,-1.3382358684600746
9.643652093,0.8932467219812285,-2.1192759951140494,-1.3544649722630606
9.648406729,0.7242842975041122,-2.228926585719641,-1.3647010433743791
9.653161312,0.5513788822613522,-2.335455632983887,-1.3690881154037329
9.657915895,0.3751845234153044,-2.4378013109601953,-1.3678217819391845
9.662670531,0.19635759101292985,-2.5348998583715945,-1.3611463256813339
9.667425114,0.015551173148672366,-2.625694805968959,-1.3493514566673523
9.672179698,-0.16659045733270766,-2.7091462983886445,-1.3327687015696192
9.676934281,-0.3494372272124973,-2.784240407558694,-1.311767486971877
9.681688916,-0.5323784206556957,-2.8499983335829535,-1.2867509603420855
9.6864435,-0.7148275337911673,-2.905485389621226,-1.2581515930091203
9.691198083,-0.8962267520659224,-2.949819669616047,-1.2264266096423249
9.695952666,-1.0760509800809317,-2.982180301802207,-1.1920532884100008
9.700707302,-1.2538113584937538,-3.00181519673117,-1.155524175115919
9.705461885,-1.429058208482256,-3.008048205929549,-1.117342253200831
9.710216468,-1.6013833511478852,-3.000285616084949,-1.0780161095881515
9.714971104,-1.770421757056012,-2.9780219135376362,-1.0380551339863016
9.719725687,-1.9358524898249498,-2.9408447645309743,-0.9979647864798763
9.72448027,-2.097398917259269,-2.888439167802823,-0.9582419651682226
9.729234854,-2.2548281740034293,-2.8205907473608556,-0.919370502572269
9.733989489,-2.407949871157139,-2.73718816437522,-0.881816817181913
9.738744073,-2.5566140608137466,-2.6382246377710032,-0.8460257456901055
9.743498656,-2.7007084769289293,-2.5237985730936088,-0.8124165826141947
9.748253239,-2.84015508783341,-2.3941133084184845,-0.7813793566202412
9.753007875,-2.9749060093502737,-2.2494759944469127,-0.7532713754783797
9.757762458,-3.1049388401805658,-2.0902956335258565,-0.7284140725928933
9.762517041,-3.230251492593811,-1.9170803092647362,-0.7070901866344548
9.767271677,-3.3508566014464845,-1.7304336448286046,-0.6895413021193679
9.77202626,-3.4667756032501327,-1.5310505339875682,-0.6759657736099508
9.776780843,-3.578032584468577,-1.3197121946763073,-0.6665170504346135
9.781535427,-3.684648004351353,-1.097280600170791,-0.6613024131433256
9.786290062,-3.786632402245882,-0.864692347941043,-0.6603821277552907
9.791044645,-3.883980202341267,-0.6229520306452859,-0.6637690193981101
9.795799229,-3.976663730118482,-0.37312517742987034,-0.6714284631543925
9.800553864,-4.064627554394939,-0.11633083654413942,-0.6832787866689359
9.805308448,-4.147783266736497,0.14626612785207058,-0.6991920761459037
9.810063031,-4.226004806110909,0.41346295100959435,-0.7189953746584832
9.814817614,-4.299124430873992,0.6840270216726969,-0.7424722591740904
9.81957225,-4.366929432416666,0.956704002969564,-0.7693647804064251
9.824326833,-4.429159675037393,1.2302259506107076,-0.7993757475932376
9.829081416,-4.485506034949703,1.503319362292178,-0.8321713385667548
9.833836,-4.535609798033,1.7747130964161997,-0.8673840139557184
9.838590635,-4.579063061329093,2.0431461031389695,-0.9046157129098058
9.843345218,-4.6154101677477755,2.3073749161875434,-0.9434413062577762
9.848099802,-4.644150187308315,2.5661808596990285,-0.9834122814464386
9.852854385,-4.664740441789117,2.8183769303625277,-1.0240606319779353
9.85760902,-4.676601053132552,3.062814321224134,-1.0649029224557147
9.862363604,-4.679120479605463,3.298388559492516,-1.1054444988902266
9.867118187,-4.671661987812313,3.524045236416912,-1.1451838127108769
9.871872823,-4.653570993469422,3.7387853126787998,-1.183616826028193
9.876627406,-4.624183189644104,3.9416699876396173,-1.2202414650807167
9.881381989,-4.582833368191871,4.131825125136035,-1.254562088452674
9.886136573,-4.528864828597183,4.308445232252792,-1.2860939365304236
9.890891208,-4.461639258486949,4.470796990603237,-1.314367528753433
9.895645791,-4.3805469618236605,4.618222342112278,-1.3389329754813741
9.900400375,-4.285017304226255,4.750141133154128,-1.3593641717066682
9.90515501,-4.17452924000669,4.866053322195865,-1.3752628403535516
9.909909593,-4.048621782329061,4.965540756898487,-1.3862623934935787
9.914664177,-3.906904276373949,5.048268526999873,-1.392031580465477
9.91941876,-3.749066335506683,5.113985899328875,-1.3922778926246784
9.924173395,-3.5748873021926975,5.162526841069304,-1.3867506952854034
9.928927979,-3.3842450987667303,5.193810137010848,-1.375244058379138
9.933682562,-3.1771243381320766,5.207839106097451,-1.357599258463789
9.938437198,-2.95362357101826,5.204700922209844,-1.3337069260118923
9.943191781,-2.713961554520187,5.184565543878134,-1.3035088134226829
9.947946364,-2.4584824362186946,5.1476842575733075,-1.266999160971373
9.952700948,-2.187659759160559,5.094387839417861,-1.2242256399465377
9.957455583,-1.9020992052533132,5.025084340621971,-1.175289854553888
9.962210166,-1.602540008078027,4.940256502730362,-1.1203473868265725
9.96696475,-1.289854980586574,4.840458809891477,-1.0596073718419816
9.971719333,-0.9650491184649881,4.726314186855268,-0.9933315940518028
9.976473968,-0.6292567559587234,4.598510353267127,-0.9218330994839904
9.981228552,-0.28373726752239004,4.4577958470354995,-0.8454743229118787
9.985983135,0.07013067438969874,4.304975732082812,-0.7646647337117353
9.990737718,0.43085625793273413,4.14090700860809,-0.6798580089528125
9.995492354,0.7968450623099677,3.9664937470418598,-0.5915487472225337
10.00024694,1.166408898620001,3.782681970083279,-0.5002687417628182
10.00500152,1.5377768833230634,3.5904543104797377,-0.40658283668507006
10.00975616,1.909107650842917,3.390824475435184,-0.31108439534956894
10.01451074,2.278502596954858,3.184831551610562,-0.21439041545247184
10.01926532,2.6440200306790675,2.9735341875061256,-0.11713633098372231
10.02401991,3.003690099485038,2.758004692489272,-0.019970547019601406
10.02877454,3.3555303408075114,2.5393230937522007,0.07645124073942586
10.03352913,3.697561702308175,2.3185711939571036,0.17147188381210507
10.03828371,4.02782486417789,2.0968266731673806,0.26443871254882145
10.04303834,4.344396689297304,1.875157278791852,0.35470949271896357
10.04779293,4.645406621520332,1.6546151466156498,0.44165833405848076
10.05254751,4.92905284898028,1.436231294516138,0.5246814749600411
10.05730209,5.193618048395006,1.2210103281738793,0.6032028665751417
10.06205673,5.437484528086837,1.0099253950491076,0.6766794809917072
10.06681131,5.659148591998457,0.8039134191945937,0.7446062721234964
10.0715659,5.857233954450056,0.6038706451952963,0.8065207245409212
10.07632048,6.030504045712849,0.41064851469862396,0.8620069344405696
10.08107511,6.177873061558653,0.22504989362163058,0.9106991777266928
10.0858297,6.298415625639614,0.04782566219602276,0.9522849318948894
10.09058428,6.391374951663121,-0.1203283263790396,0.9865073300258368
10.09533892,6.456169412525915,-0.27877391954670416,1.013167035760279
10.1000935,6.492397445337916,-0.42693297867550767,1.032123537046955
10.10484808,6.4998407439684325,-0.5642893454371594,1.0432958636292344
10.10960267,6.478465713832073,-0.6903904797440094,1.0466627389320515
10.1143573,6.428423186765587,-0.8048487914120593,1.0422621816420037
10.11911188,6.350046416890416,-0.9073426898166795,1.0301905762261183
10.12386647,6.2438474012044916,-0.9976173762060118,1.0106012352035028
10.1286211,6.110511591064204,-1.0754854020719737,0.983702479376031
10.13337569,5.950891082255937,-1.140827014181515,0.9497552655793299
10.13813027,5.7659963913913685,-1.1935903026926706,0.9090703949198928
10.14288485,5.556986944189264,-1.2337911633572265,0.8620053379556502
10.14763949,5.325160416150931,-1.261513078283181,0.8089607168485392
10.15239407,5.071941077637849,-1.2769067122823465,0.7503764881234639
10.15714866,4.798867303074903,-1.2801893137290254,0.6867278732297678
10.16190329,4.507578407870578,-1.2716439004601492,0.6185210875002549
10.16665788,4.199800976885613,-1.2516182030025642,0.5462889211572538
10.17141246,3.8773348453347922,-1.2205233298760954,0.47058622844860426
10.17616704,3.5420388874454805,-1.178832113561486,0.39198538240789293
10.18092168,3.195816760590457,-1.1270770916584116,0.3110717525443586
10.18567626,2.840602743359499,-1.065848076428085,0.22843926014909582
10.19043084,2.478347795295407,-0.9957892677490383,0.14468605990605127
10.19518543,2.111005953889413,-0.9175958696667158,0.06041038665043594
10.19994006,1.7405211712283508,-0.8320101790494847,-0.023793406809042506
10.20469464,1.3688146790680282,-0.7398171259989527,-0.1073386088062752
10.20944923,0.9977729578732764,-0.6418392590964545,-0.18964970520176888
10.21420381,0.6292363731674496,-0.5389311837666931,-0.2701657420446235
10.21895845,0.26498853170386993,-0.4319734784611641,-0.3483435075809409
10.22371303,-0.09325359950088175,-0.32186613040223505,-0.423660546281017
10.22846761,-0.44384877659095595,-0.20952154953332622,-0.495618013749992
10.23322225,-0.785239737608168,-0.09585723516124978,-0.5637433755705151
10.23797683,-1.1159606162890834,0.01821181644444003,-0.6275929465238816
10.24273142,-1.4346434969500839,0.13178086431845978,-0.6867542600327553
10.247486,-1.7400241021453515,0.24396322811228716,-0.7408482515084914
10.25224064,-2.0309466098713664,0.35389803526935076,-0.7895312339608004
10.25699522,-2.306367601757383,0.46075779762957364,-0.832496640429782
10.2617498,-2.5653591480923055,0.5637557067238893,-0.8694765067512612
10.26650444,-2.807111039825011,0.6621525415308571,-0.9002426711725853
10.27125902,-3.0309321819377306,0.7552630895701388,-0.9246076745567312
10.2760136,-3.236251166902736,0.842461991411438,-0.9424253545630463
10.28076819,-3.4226160512747223,0.9231889292638479,-0.9535911364184865
10.28552282,-3.5896933627127288,0.996953091595345,-0.9580420295798142
10.29027741,-3.7372663687106087,1.0633368573242807,-0.9557563433272576
10.29503199,-3.865232641973189,1.1219986549554426,-0.946753135975465
10.29978657,-3.973600960716709,1.1726749641843086,-0.9310914130432248
10.30454121,-4.062487585216336,1.215181440013423,-0.9088690901088462
10.30929579,-4.132111954664057,1.2494131522562972,-0.8802217364585033
10.31405038,-4.182791850824207,1.2753439462960874,-0.8453211160199342
10.31880501,-4.214938077097279,1.293024943913083,-0.804373542400352
10.32355959,-4.22904870348908,1.3025822156653872,-0.7576180650707544
10.32831418,-4.225702929725082,1.3042136684620156,-0.7053245038593593
10.33306876,-4.205554620428044,1.2981852033729824,-0.6477913489695061
10.3378234,-4.169325567915389,1.2848262091484275,-0.5853435437639166
10.34257798,-4.117798539721517,1.2645244661323995,-0.5183301675800875
10.34733256,-4.051810169281062,1.237720543005397,-0.44712203585407195
10.35208714,-3.9722437491486193,1.2049017748216495,-0.3721092348036863
