Time (s),X (m/s^2),Y (m/s^2),Z (m/s^2)
6.004083542,-0.022408050661843548,0.29070615051959964,-0.4478978501944067
6.014009542,-0.0833623102774942,0.5066025070451371,-0.40312329062692837
6.023935542,-0.14854313842460617,0.7281177392756517,-0.3590087769631194
6.033861542,-0.21811954255142588,0.9541199863633599,-0.31586882413045236
6.043787542,-0.29220668695226626,1.1833737467639653,-0.27397674769982866
6.053713542,-0.3708576609060035,1.4145447591450246,-0.2335610865719964
6.063639542,-0.4540557720821174,1.6462060057656074,-0.1948029376468371
6.073565542,-0.5417075335879121,1.8768448418379815,-0.15783425825047942
6.083491542,-0.6336365106625229,2.104871268734717,-0.12273717239778531
6.093417542,-0.7295781869077911,2.3286273791786307,-0.0895442979695327
6.103343542,-0.8291759994960096,2.546398005955249,-0.05824009373374451
6.113269542,-0.9319786776503838,2.756422600499195,-0.02876320755967632
6.123195542,-1.0374389988877095,2.9569083534440255,-0.0010097898900068738
6.133121542,-1.144914053711812,3.1460445466427114,0.025162280500710836
6.143046542,-1.2536670830385874,3.3220180970467417,0.0499283281050557
6.152972542,-1.3628709255205462,3.483030219592916,0.07349105544366068
6.162898542,-1.4716130860202026,3.6273141014580967,0.09607406232637564
6.172824542,-1.5789024129689948,3.7531534460415643,0.11791482568233953
6.182750542,-1.6836773513058154,3.8589017136749884,0.1392572695968425
6.192676542,-1.7848157181862445,3.943001858495888,0.16034406707611218
6.202602542,-1.8811459294246349,4.004006337498989,0.18140882475192815
6.212528417,-1.9714595847476934,4.04059714820614,0.2026683089187646
6.222454417,-2.054525299159564,4.0516056351502305,0.22431487582765317
6.232380417,-2.12910364645035,4.036031792144256,0.24650927099224748
6.242306417,-2.193963059788015,3.9930627772228666,0.26937396138131625
6.252232417,-2.2478965139306846,3.922090350663168,0.2929871606857198
6.262158417,-2.2897387942213743,3.8227269441726723,0.31737770096583345
6.272084417,-2.318384139628769,3.694820071629696,0.34252089317268314
6.282010417,-2.332804031327246,3.5384647989586204,0.3683355035485195
6.291936417,-2.3320648852531,3.3540140029463776,0.3946819524704295
6.301862417,-2.315345396951245,3.1420861660824153,0.4213618172854786
6.311788417,-2.2819532796781683,2.9035704768904336,0.44811869203570664
6.321714417,-2.2313411318914307,2.639629032974938,0.4746404261222069
6.331640417,-2.163121167934838,2.3516959774896953,0.5005627328638953
6.341566417,-2.0770785464313746,2.0414734389098377,0.5254741296599319
6.351492417,-1.9731830356067759,1.7109241879979988,0.5489221453789822
6.361418417,-1.8515987645225573,1.3622609732723476,0.5704207074780444
6.371344417,-1.7126918243962097,0.9979325458459742,0.5894585997104652
6.381270417,-1.5570355041242656,0.6206064355421905,0.6055088594647835
6.391196417,-1.3854129673062834,0.23314859236222815,0.6180389612854944
6.401122417,-1.1988172031440363,-0.1613999399045946,0.6265216112530252
6.411048417,-0.9984481101516335,-0.559849099079634,0.630445958150205
6.420974417,-0.7857066004253532,-0.9588883604850448,0.6293290140109173
6.430900417,-0.5621856450879944,-1.355117459571468,0.6227270695818494
6.440826417,-0.32965822085259444,-1.7450789287966042,0.6102468886526269
6.450752417,-0.09006216558327591,-2.1252920656685603,0.5915564675699772
6.460678417,0.15451799193830662,-2.4922879270520197,0.5663951513542241
6.470604417,0.4018720972193948,-2.842644931349696,0.5345829054217668
6.480530417,0.6496881283594791,-3.1730246439542196,0.49602855236671656
6.490456417,0.8955783730635315,-3.4802073214260267,0.45073679686502394
6.500382417,1.1371076803942315,-3.7611267956394623,0.3988138782921359
6.510308417,1.3718233804764077,-4.012904290560051,0.34047170945925687
6.520234417,1.5972864118088357,-4.232880781540926,0.2760303804658285
6.530160417,1.811103152730924,-4.41864753002766,0.2059189289789249
6.540086417,2.0109574218121744,-4.568074454528052,0.13067430252494344
6.550012417,2.194642092908573,-4.679336029895144,0.05093846479370856
6.559938417,2.3600897661496467,-4.750934439296643,-0.032546373516678696
6.569864417,2.505401947423514,-4.781719735059998,-0.11894438823286421
6.579790417,2.628876216140618,-4.770906795007785,-0.20733459589781703
6.589716417,2.729030903360189,-4.7180888895873325,-0.2967210499009607
6.599642417,2.8046268583298932,-4.623247701968029,-0.3860446622468596
6.609568417,2.8546859489668024,-4.486759668445768,-0.47419649502991357
6.619494417,2.8785060175333244,-4.309398530275594,-0.5600323257541826
6.629420417,2.87567209252067,-4.092334010955369,-0.6423882528000854
6.639346417,2.846063737418951,-3.8371265558545304,-0.7200970733457672
6.649272417,2.789858493578571,-3.5457180954069587,-0.792005136850776
6.659198417,2.7075314455187605,-3.220418820921589,-0.8569893543230457
6.669124417,2.5998510003087794,-2.863889995450471,-0.9139740302807954
6.679050417,2.4678710251819775,-2.4791228623091253,-0.9619471851869886
6.688976417,2.312919527661437,-2.0694137602064315,-0.9999760552500732
6.698901417,2.1365840909083915,-1.6383356035193917,-1.0272214948249903
6.708827417,1.9406942961426181,-1.189705934535613,-1.0429510602746013
6.718753417,1.727301376171082,-0.7275517979464092,-1.046550614926135
6.728679417,1.4986553510514542,-0.25607172592341676,-1.037534353173132
6.738605417,1.2571799007034037,0.22040484289644932,-1.0155531894822187
6.748531417,1.0054452328784667,0.6974603516391877,-0.9804014892266154
6.758457417,0.7461392121177123,1.1706337231079371,-0.9320221310214628
6.768383417,0.4820370294071295,1.6354663284373123,-0.8705098881083545
6.778309417,0.21596971403063528,2.0875488463172087,-0.7961131072656472
6.788235417,-0.049208183717553124,2.5225684951845806,-0.7092336562982667
6.798161417,-0.310651382185526,2.936356089652959,-0.610425111107378
6.808087417,-0.5655567491371273,3.3249323490075526,-0.5003891626474783
6.818013417,-0.8111958751882961,3.684552871024557,-0.3799702420284752
6.827939417,-1.044946933832733,4.011751180062289,-0.25014838614325696
6.837865417,-1.264325424931649,4.30337926540428,-0.11203039277708057
6.847791417,-1.4670134114376607,4.556645044348053,0.033160660796791926
6.857717417,-1.6508868798491172,4.769146213610094,0.18409744082466928
6.867643417,-1.814040880538396,4.938899990724639,0.3393618102325142
6.877569417,-1.9548121320403469,5.064368292733553,0.49745958668181134
6.887495417,-2.0717988020994236,5.144477951545264,0.656836467201086
6.897421417,-2.163877207508763,5.178635623319974,0.815894967472622
6.907347417,-2.230215205246454,5.16673711270124,0.973012209201053
6.917273417,-2.2702820803532187,5.109170901046261,1.1265583731283821
6.927199417,-2.283854772774371,5.0068157401123425,1.2749156181699006
6.937125417,-2.271020327139946,4.861032247931924,1.4164972489587373
6.947051417,-2.232174496542913,4.673648521069622,1.5497668952781862
6.956977417,-2.1680164829679054,4.446939856838996,1.673257448665141
6.966903417,-2.0795398512782457,4.183602760654387,1.7855894861312451
6.976829417,-1.968019708505135,3.8867234979397534,1.8854889011676992
6.986755417,-1.834996294073441,3.5597415366863183,1.971803459927063
6.996681417,-1.682255178880662,3.2064083141322985,2.0435180062329588
7.006607417,-1.5118043218322486,2.8307418457189724,2.099768052385692
7.016533417,-1.3258482818298123,2.4369777720891492,2.139851512962875
7.026459417,-1.1267599315337407,2.029517506515516,2.163238365439281
7.036385417,-0.9170500662873395,1.6128741986011539,2.1695780539165095
7.046311417,-0.6993353464023025,1.1916172703113528,2.158704489865359
7.056237417,-0.47630505118242505,0.7703163086132795,2.130638545750064
7.066163417,-0.2506871540556687,0.3534851165652741,2.08558798286137
7.076089417,-0.02521424335133504,-0.054473267822427174,2.023944802808889
7.086015417,0.19741019343358016,-0.4493197793934791,1.946280062144233
7.095941417,0.41454463315253753,-0.82702997373778,1.8533362398310593
7.105867417,0.6236410838957007,-1.1838413690195368,1.7460172939824876
7.115793417,0.8222749595541008,-1.5162968021638983,1.6253765832563636
7.125719417,1.0081729125196586,-1.8212832113118695,1.4926028588488236
7.135645417,1.1792383178452421,-2.096065365063722,1.3490045585056827
7.145571417,1.33357414366454,-2.3383141740217086,1.195992657444167
7.155497417,1.4695029835197273,-2.546129331963746,1.0350623522195215
7.165423417,1.5855840662093696,-2.71805613633007,0.8677738703437181
7.175349417,1.6806270981874059,-2.853096427917156,0.6957327098302369
7.185275417,1.7537028335981282,-2.9507136683058066,0.5205696188664038
7.195201417,1.8041503087849904,-3.0108322432265777,0.3439206265092503
7.205127417,1.8315807216840168,-3.033831143874467,0.16740743041336287
7.215052958,1.8358779810684722,-3.0205322383919047,-0.007381563038306908
7.224978958,1.817195995009206,-2.972183403095403,-0.17890926746034908
7.234904958,1.7759528114247156,-2.890436836559561,-0.345706758493574
7.244830958,1.7128217659480824,-2.7773229271507582,-0.5063887038621939
7.254756958,1.6287198329549957,-2.635220083742306,-0.6596671932910786
7.264682958,1.5247934128704603,-2.4668209692175616,-0.8043638224442456
7.274608958,1.4024018205012736,-2.2750955979159766,-0.9394199299724191
7.284534958,1.2630987632342574,-2.063251773591813,-1.0639049315828173
7.294460958,1.1086121136968485,-1.834693356171531,-1.1770227376327769
7.304386958,0.940822288957408,-1.592976855590745,-1.2781162793712275
7.314312958,0.7617395478624566,-1.3417668604814381,-1.366670201947718
7.324238958,0.573480510002144,-1.0847908186878652,-1.4423118082825206
7.334164958,0.37824418473631266,-0.8257936944396592,-1.5048103563699708
7.344090958,0.17828777810468763,-0.5684930311076449,-1.5540748244641756
7.354016958,-0.02409747867461875,-0.31653494580638447,-1.5901502658223168
7.363942958,-0.22661026092007147,-0.07345157031475658,-1.6132128793223728
7.373868958,-0.4269626493355441,0.15737956895604224,-1.6235639256365297
7.383794958,-0.6229030261886992,0.37277377018766755,-1.6216226210562665
7.393720958,-0.8122382191159959,0.5697745514743161,-1.6079181422465851
7.403646958,-0.9928547586387387,0.7456858438852679,-1.5830808747343386
7.413572958,-1.1627391262906575,0.8981006534032023,-1.5478330355228156
7.423498958,-1.3199968762349061,1.024925915909984,-1.5029787958211944
7.433424958,-1.4628705155329647,1.1244033247887155,-1.4493940236942608
7.443350958,-1.5897560289046417,1.1951259672690866,-1.3880157589081492
7.453276958,-1.6992179352890833,1.236050662290171,-1.3198315239436194
7.463202958,-1.790002767575375,1.2465059484485528,-1.2458685667585003
7.473128958,-1.861050874114859,1.226195724682474,-1.1671831232834564
7.483054958,-1.911506450513986,1.1751985981440938,-1.0848497817401022
7.492980958,-1.9407257215509244,1.09396304323505,-0.9999510268313032
7.502906958,-1.9482832046534941,0.9832985233539397,-0.9135670381251002
7.512832958,-1.9339759975145545,0.8443627723623358,-0.8267658105879147
7.522758958,-1.8978260430499205,0.6786454749207911,-0.7405936538216462
7.532684958,-1.840080335258834,0.4879486218122948,-0.6560661102253598
7.542610958,-1.7612090396838262,0.2743638464994293,-0.5741593138328291
7.552536958,-1.661901512057157,0.04024707160754373,-0.4958017951097299
7.562462958,-1.5430602089613656,-0.21180919117358102,-0.42186672636517925
7.572388958,-1.4057924966201438,-0.47900553636590765,-0.35316459993527555
7.582314958,-1.2514003804996323,-0.7583670013946282,-0.2904363369696762
7.592240958,-1.081368200635456,-1.0467756924667586,-0.23434683625643182
7.602166958,-0.8973483650591206,-1.341004351345327,-0.1854789863621998
7.612092958,-0.7011452241828253,-1.6377505201991749,-0.14432817682388746
7.622018958,-0.4946972195347759,-1.9336709685569462,-0.11129735319674791
7.631944958,-0.28005746819312516,-2.225416054876457,-0.08669266659067029
7.641870958,-0.05937296818751475,-2.5096637055763287,-0.07071977237212015
7.651796958,0.16513737004534684,-2.7831527063948864,-0.06348083633128444
7.661722958,0.3912056444130654,-3.042715014073104,-0.06497231019677983
7.671647958,0.6165385976020414,-3.285306810082467,-0.07508354139797023
7.681574958,0.8388417186364953,-3.5080380325955822,-0.09359628359293765
7.691499958,1.0558435452296029,-3.7082001391821886,-0.12018517406222143
7.701425958,1.265319889676973,-3.883291872204043,-0.15441924123457776
7.711351958,1.4651177007400231,-4.031042822410954,-0.19576449998514292
7.721277958,1.6531782684234735,-4.14943461353103,-0.24358768337533107
7.731203958,1.8275594791195222,-4.236719560424705,-0.29716114662632925
7.741129958,1.986456835422588,-4.291436683900343,-0.3556689622939617
7.751055958,2.1282229676546125,-4.312424995012094,-0.418214205818336
7.760981958,2.251385382683862,-4.298833989585611,-0.4838274097296562
7.770907958,2.35466222008285,-4.250131319338914,-0.5514761447420428
7.780833958,2.436975815842996,-4.166107628926427,-0.6200756678146103
7.790759958,2.4974639089854764,-4.046878568206898,-0.6885005607103449
7.800685958,2.535488365369759,-3.892884005984727,-0.7555972661621585
7.810611958,2.5506413344672825,-3.7048844859156302,-0.8201974103954732
7.820537958,2.542748797032002,-3.4839549781327004,-0.8811317787119485
7.830463958,2.5118715020064872,-3.231475992313251,-0.9372447848240003
7.840389958,2.4583033271389825,-2.949122129831452,-0.9874092464954208
7.850315958,2.3825671282961345,-2.6388481644610438,-1.0305412530932372
7.860241958,2.2854081677738773,-2.302872753029435,-1.0656148881359289
7.870167958,2.1677852336200796,-1.9436598900369901,-1.0916765543952227
7.880093958,2.0308595815933805,-1.5638982341583652,-1.1078586430381092
7.890019958,1.8759818495781992,-1.1664784498287546,-1.1133922942141563
7.899945958,1.704677111026518,-0.7544687230443994,-1.1076190157227375
7.909871958,1.5186282490926641,-0.3310886257605531,-1.090000957602521
7.919797958,1.3196578464060247,0.10031848338498398,-1.0601296799118216
7.929723958,1.1097087965935557,0.5363143234905742,-1.0177332941844062
7.939649958,0.8908238523373236,0.9733956141118337,-0.9626819022927591
7.949575958,0.6651243308436142,1.4080248430423548,-0.8949912965163596
7.959501958,0.43478820134935864,1.8366616601715045,-0.8148249183348527
7.969427958,0.20202778078934377,2.255794671350338,-0.7224940981692035
7.979353958,-0.030932737370429262,2.661973395549125,-0.6184566128574213
7.989279958,-0.2618797003623309,3.0518401332676457,-0.5033136032283563
7.999205958,-0.4886321460458483,3.422161475134542,-0.3778048941517927
8.009131958,-0.7090634820764561,3.7698591596454136,-0.242802758793167
8.019057958,-0.9211225020002154,4.092039971430147,-0.0993041720813536
8.028983958,-1.1228535569800067,4.386024359531408,0.05157839221439914
8.038909958,-1.312415711919459,4.649373451452186,0.20862755188812743
8.048835958,-1.4881007239534512,4.879914144255896,0.370532908346168
8.058761958,-1.6483496904167687,5.07576196779851,0.5359041374503485
8.068687958,-1.7917682231664527,5.235341434748935,0.7032851601961253
8.078613958,-1.917140016438709,5.357403614818288,0.8711692591954128
8.088539958,-2.0234386855718247,5.441040694957338,1.0380149928835758
8.098465958,-2.109837763310093,5.485697312714928,1.2022627464929543
8.108391958,-2.175718749010247,5.49117847675748,1.3623517474267648
8.118317958,-2.220677114501098,5.457653917357947,1.5167373629585785
8.128243958,-2.2445261795461118,5.3856587411178305,1.6639084900693466
8.138169958,-2.247298780904856,5.276090298742544,1.8024048402166755
8.148095958,-2.2292466729702864,5.130201212587865,1.930833915345301
8.158021958,-2.1908376157944756,4.949588552060939,2.047887465356779
8.167947958,-2.132750128448989,4.736179189893494,2.1523572121362546
8.177873958,-2.055865911821153,4.492211420869857,2.2431496223476906
8.187799958,-1.9612599741979109,4.22021297664266,2.3192995122541347
8.197725958,-1.850188524123583,3.9229756250996024,2.379982274431918
8.207651958,-1.7240747269386167,3.6035265987393816,2.4245245293015945
8.217578542,-1.5844924533456346,3.2650971511463687,2.4524130235231274
8.227504542,-1.4331481799213293,2.9110885909828594,2.46330162110656
8.237430542,-1.2718612327003211,2.5450361863610516,2.4570162600342123
8.247356542,-1.102542596126851,2.170571367408433,2.433557776409198
8.257282542,-0.9271725411761905,1.791382680828299,2.393102529502186
8.267208542,-0.7477773581466857,1.4111759675508049,2.336000794513687
8.277134542,-0.5664055100623069,1.0336342436270642,2.26277292483117
8.287060542,-0.3851035484125066,0.6623777659498439,2.1741033210282854
8.296986542,-0.20589214924966845,0.30092475937969215,2.0708322790855993
8.306912542,-0.03074263038441304,-0.047346727964448526,1.953945825348918
8.316838542,0.1384457010708916,-0.37923538818296765,1.8245636806252066
8.326764542,0.29986704378962137,-0.6917512008741429,1.6839255287884354
8.336690542,0.45182914077285397,-0.9821475530333528,1.5333757927223601
8.346616542,0.5927715925498551,-1.24795055028957,1.3743471402983605
8.356542542,0.7212822095888842,-1.486985173193473,1.2083429576742841
8.366468542,0.83611120655965,-1.6973979711056564,1.036919040712107
8.376394542,0.9361830839874604,-1.8776760288122054,0.8616647691924466
8.386320542,1.0206060883764323,-2.0266619884408903,0.6841840408402551
8.396246542,1.088679187489521,-2.143564962743792,0.5060762503793226
8.406172542,1.1398965419223508,-2.227967235218137,0.3289176008145518
8.416098542,1.1739494975690603,-2.2798267054306853,0.15424302796965692
8.426024542,1.1907261662138469,-2.299475099712105,-0.016470996032917226
8.435950542,1.190308701896385,-2.2876120230683115,-0.18182253807746698
8.445876542,1.1729684159674183,-2.245294974458573,-0.3404989446438351
8.455802542,1.1391589011756071,-2.173925484061698,-0.4912900657190723
8.465728542,1.0895073539269855,-2.075231559584511,-0.6330998130166811
8.475654542,1.024804295298739,-1.9512466519009668,-0.7649559375096046
8.485580542,0.945991897701753,-1.80428537128802,-0.8860179463903752
8.495506542,0.8541511272707444,-1.636916206748353,-0.9955831154925088
8.505432542,0.7504879131184119,-1.4519315240655,-1.0930905890090035
8.515358542,0.6363185533033388,-1.2523151438729727,-1.178123592367615
8.525284542,0.5130545626181929,-1.041207828447481,-1.250409814334042
8.535210542,0.3821871578545341,-0.8218710335248105,-1.30982003918684
8.545136542,0.24527156149624965,-0.597649307214245,-1.3563651287603127
8.555062542,0.10391128540947397,-0.3719317403538525,-1.3901914683149272
8.564988542,-0.04025746652720005,-0.14811289031473698,-1.4115750012309851
8.574914542,-0.18558116203280395,0.07044638718804111,-1.4209139866694243
8.584840542,-0.33040397936911886,0.28045775655950167,-1.418720621997552
8.594766542,-0.4730824527825627,0.47874342796721847,-1.4056116778254935
8.604692542,-0.611999674382245,0.6622729520710668,-1.3822982978323461
8.614618542,-0.745579016945954,0.8281983576904862,-1.349575118204933
8.624544542,-0.8722973522204824,0.9738872253113321,-1.3083088623801016
8.634470542,-0.9906977450979659,1.0969533151879072,-1.2594265654951045
8.644396542,-1.0994016059220615,1.1952844007771868,-1.203903579065712
8.654322542,-1.197120281379888,1.2670669954391396,-1.142751499851553
8.664248542,-1.2826660593094836,1.3108077016376474,-1.0770061580869463
8.674174542,-1.3549625548210762,1.325350956022968,-1.007715790001551
8.684100542,-1.4130544350775025,1.309892989506274,-0.9359295085889716
8.694026542,-1.4561164286650854,1.263991867644722,-0.8626861756262463
8.703952542,-1.483461553533636,1.187573522510519,-0.7890037675470172
8.713878542,-1.4945484859514417,1.0809337322014128,-0.7158693177661436
8.723804542,-1.4889879828917394,0.9447360479416425,-0.6442295073227138
8.733730542,-1.4665482627091564,0.7800057109539371,-0.5749819629405993
8.743656542,-1.4271592444317227,0.5881196414243378,-0.5089673065735223
8.753582542,-1.370915544613754,0.3707926194352832,-0.44696198456078484
8.763508542,-1.2980781324807085,0.13005981263117497,-0.3896718899048675
8.773434542,-1.209074549257752,-0.1317441618080409,-0.3377267798919018
8.783360542,-1.1044976065493999,-0.41200942153282083,-0.2916754844036578
8.793286542,-0.9851024918454208,-0.707877998741848,-0.25198189780098545
8.803212542,-0.8518022266621504,-1.0162737325896158,-0.2190217480893209
8.813138542,-0.7056614438158487,-1.3339345606471196,-0.1930801393474898
