Time (s),Acceleration x (m/s^2),Acceleration y (m/s^2),Acceleration z (m/s^2)
10.00092661,5.364708424,-8.772088051,-6.965506554
10.00568125,5.422136307,-8.595019341,-6.798008919
10.01043583,5.319244862,-8.405985832,-6.702296257
10.01519042,4.632504463,-8.097311974,-6.431907177
10.01994505,3.790230989,-7.987242222,-7.049255371
10.02469964,2.868994236,-7.467999458,-7.097112179
10.02945422,2.177468538,-7.298109055,-7.633104324
10.0342088,1.42372942,-6.920042992,-7.757531166
10.03896338,0.8685946465,-6.635297298,-7.819744587
10.04371802,0.4522434771,-6.259624004,-7.652246952
10.0484726,-0.1986042857,-6.015556335,-7.52782011
10.05322719,-0.6005984545,-5.895915031,-7.601997375
10.05798182,-0.8087740541,-5.938985825,-7.774280548
10.06273641,-1.03848505,-6.049055576,-8.056633949
10.06749099,-1.15094769,-6.211767673,-8.319844246
10.07224557,-1.122233868,-6.429514408,-8.504091263
10.07700021,-1.028913736,-6.630511761,-8.508877754
10.08175479,-0.8709874153,-6.819544315,-8.377271652
10.08650938,-0.6939185858,-6.943971157,-8.185846329
10.09126396,-0.5335994363,-6.970292568,-7.932207108
10.09601854,-0.3852444589,-6.850651264,-7.659425259
10.10077318,-0.2679961324,-6.599404812,-7.350750923
10.10552776,-0.2249253243,-6.293123722,-7.037291527
10.11028234,-0.2177468538,-5.922235966,-6.845865726
10.11503693,-0.2560320199,-5.508277893,-6.726224422
10.11979156,-0.2153540403,-5.106283665,-6.728617191
10.12454614,-0.09571290761,-4.721039295,-6.845865726
10.12930073,0.02153540403,-4.443471432,-7.056434155
10.13405531,0.06221338734,-4.321437836,-7.4010005
10.13880995,0.2081755698,-4.292723656,-7.819744587
10.14356453,0.4833501875,-4.438685894,-8.142775536
10.14831911,0.7226324677,-4.584648132,-8.343772888
10.1530737,0.9499505758,-4.759324074,-8.441878319
10.15782833,1.24666059,-4.945964336,-8.530412674
10.16258292,1.442872047,-4.97467804,-8.561519623
10.1673375,1.452443361,-4.926821709,-8.61655426
10.17209208,1.205982566,-4.800002098,-8.690732002
10.17684672,0.890130043,-4.675575256,-8.731410027
10.1816013,0.5838487148,-4.546362877,-8.72423172
10.18635589,0.2799602449,-4.572684288,-8.858229637
10.19111047,0.0765703246,-4.713860512,-9.025727272
10.19586505,-0.03349951655,-4.917250633,-9.224330902
10.20061969,-0.1220339537,-5.158925533,-9.238688469
10.20537427,-0.1435693651,-5.367101192,-9.111868858
10.21012885,0.01914258115,-5.551348686,-8.77448082
10.21488344,0.3206382394,-5.687739372,-8.523234367
10.21963807,0.5694918036,-5.577669621,-8.36052227
10.22439266,0.6604190469,-5.489135265,-8.499305725
10.22914724,0.4785645306,-5.230710506,-8.738588333
10.23390182,0.2536391914,-4.957928658,-8.851051331
10.23865641,-0.04785645381,-4.639683247,-8.879764557
10.24341104,-0.2177468538,-4.278367043,-8.721838951
10.24816562,-0.1866401732,-4.079762459,-8.738588333
10.25292021,-0.2919243574,-3.687339783,-9.05922699
10.25767479,-0.5407779217,-3.536591768,-9.198010445
10.26242943,-0.4498506486,-3.40498662,-9.518648148
10.26718401,-0.708275497,-2.849851847,-9.51386261
10.27193859,-0.3469592929,-2.694318295,-9.552147865
10.27669318,-0.390030086,-2.249253273,-9.243474007
10.28144776,-0.1555334777,-2.06261301,-9.052047729
10.2862024,0.2991028428,-2.210968018,-9.092725754
10.29095698,0.1148554832,-2.129612207,-8.908478737
10.29571156,0.5024927258,-2.517249346,-8.855836868
10.30046615,0.3206382394,-2.665604353,-8.492127419
10.30522078,0.2009970993,-2.907279491,-8.08295536
10.30997536,0.1507478207,-3.122633457,-8.286344528
10.31472995,-0.9786644578,-2.940778971,-7.762316704
10.31948453,-1.718046665,-2.845066071,-7.587640762
10.32423911,-2.330609322,-2.809173822,-7.601997375
10.32899375,-2.991028309,-2.368894339,-7.422535896
10.33374833,-2.605783939,-2.289931297,-7.561319351
10.33850292,-2.167897224,-2.256431818,-7.238288403
10.3432575,-2.641676188,-1.966900229,-6.649653912
10.34801208,-1.473978758,-2.435893536,-6.742974281
10.35276672,-0.8733802438,-2.689532757,-6.869793892
10.3575213,-0.5551348329,-2.567498684,-6.738188744
10.36227588,0.4737788737,-2.644068956,-6.113661766
10.36703047,0.7441678643,-2.368894339,-5.438885689
10.37178505,0.6197410822,-1.811366796,-5.18046093
10.37653969,0.5527420044,-1.165304661,-5.316852093
10.38129427,0.5288137794,-0.5216353536,-5.635097504
10.38604885,0.6029912829,-0.04307080805,-5.831308842
10.39080344,0.70348984,0.1986042857,-5.91266489
10.39555802,0.679561615,0.3062812984,-5.862415314
10.40031266,0.5168496966,0.2608176768,-5.613562107
10.40506724,0.3349951804,0.2392822653,-5.257031441
10.40982182,0.1698904037,0.2177468538,-4.917250633
10.41457641,0.08374879509,0.2057827413,-4.687539577
10.41933099,-0.07178468257,0.2177468538,-4.615755081
10.42408562,-0.2105683982,0.2632105052,-4.697110653
10.42884021,-0.2249253243,0.2225325108,-5.000999451
10.43359479,-0.2321037948,0.1268195957,-5.393422127
10.43834938,-0.2368894368,-0.01196411345,-5.560919762
10.44310396,-0.3326023519,-0.09571290761,-5.443671703
10.44785854,-0.4283152521,-0.1507478207,-5.173282623
10.45261313,-0.4977070987,-0.1268195957,-4.960321426
10.45736776,-0.5910272002,-0.09571290761,-4.840680122
10.46212234,-0.7441678643,-0.06699903309,-4.699503899
10.46687693,-1.012163997,-0.08853443712,-4.680361271
10.47163151,-1.337587833,-0.0765703246,-4.93878603
10.47638609,-1.555334687,-0.04546362907,-5.343173027
10.48114073,-1.607976794,-0.04785645381,-5.759523869
10.48589531,-1.521835208,-0.01914258115,-6.089733601
10.4906499,-1.430907965,-0.009571290575,-6.403193474
10.49540448,-1.304088354,-0.007178467698,-6.668796539
10.50015906,-1.174875975,-0.01196411345,-6.934400082
10.50491364,-0.9547362328,-0.03110669367,-7.238288403
10.50966828,-0.6580262184,-0.1603191197,-7.57806921
10.51442286,-0.4139583111,-0.3230310678,-7.666603565
10.51917745,-0.1172483116,-0.5790630579,-7.544569969
10.52393203,0.1627119333,-0.9020941257,-7.379465103
10.52868661,0.2033899277,-1.222732425,-7.432106972
10.5334412,0.1842473447,-1.600798368,-7.645068169
10.53819583,0.2608176768,-1.959721804,-7.690532207
10.54295042,0.342173636,-2.292324066,-7.487142086
10.547705,0.4426721931,-2.593819857,-7.197610378
10.55245958,0.4929214716,-2.868994236,-7.020541668
10.55721417,0.4642075896,-3.101098061,-6.905686378
10.56196875,0.4666004181,-3.242274761,-6.73100996
10.56672333,0.5096712112,-3.302095175,-6.699903488
10.57147797,0.5766702294,-3.412165165,-6.752545357
10.57623255,0.5599204898,-3.426522017,-6.752545357
10.58098714,0.6101697683,-3.426522017,-6.415157318
10.58574172,1.031306505,-3.610769272,-6.077769279
10.5904963,0.7537391186,-3.598805189,-6.281159401
10.59525088,0.679561615,-3.584448338,-6.589833736
10.60000547,0.9690931439,-3.802195072,-6.826723099
10.60476005,0.6125625968,-3.83569479,-7.073183537
10.60951469,0.3158525825,-3.720839262,-7.298109055
10.61426927,0.5886343718,-3.979264021,-7.96331358
10.61902385,0.5312066078,-4.242474556,-8.494520187
10.62377844,0.04067798331,-4.185046673,-8.403593063
10.62853302,-0.0,-4.345366001,-8.267202377
10.6332876,0.6460621357,-4.917250633,-8.374878883
10.63804219,0.5312066078,-5.266602516,-8.377271652
10.64279677,0.313459754,-5.5154562,-8.056633949
10.64755135,0.457029134,-5.984449387,-7.920242786
10.65230599,0.6652047038,-6.525227547,-8.051848412
10.65706057,0.6699903607,-7.111468792,-8.458627701
10.66181516,0.4761717021,-7.570890903,-8.736195564
10.66656974,0.394815743,-7.953742504,-8.657232285
10.67132432,0.3852444589,-8.257631302,-8.535198212
10.67607891,0.4953143001,-8.487341881,-8.525627136
10.68083349,0.1914258152,-8.676374435,-8.853444099
10.68558807,0.1794617027,-8.858229637,-9.056833267
10.69034266,0.09092725813,-8.858229637,-8.846264839
10.69509724,0.04546362907,-8.707481384,-8.690732002
10.69985188,0.07417750359,-8.563912392,-8.547162056
10.70460646,-0.1627119333,-8.226524353,-8.465806961
10.70936104,-0.2321037948,-7.982456207,-8.46102047
10.71411562,-0.4378865361,-7.57806921,-8.370093346
10.71887021,-0.5790630579,-7.238288403,-8.23370266
10.72362479,-0.7441678643,-6.884150982,-8.094919205
10.72837938,-0.7537391186,-6.551548481,-7.908278942
10.73313396,-0.7657032609,-6.28355217,-7.764709473
10.73788854,-0.5288137794,-6.31226635,-7.774280548
10.74264312,-0.2632105052,-6.345765591,-7.802994728
10.74739771,-0.1316052526,-6.477370739,-7.824530125
10.75215229,0.313459754,-6.896114826,-7.817351341
10.75690693,0.7680960894,-7.281359196,-7.65703249
10.76166151,0.8709874153,-7.585247993,-7.475177765
10.76641609,1.15094769,-8.200202942,-7.456035137
10.77117068,1.337587833,-8.628518105,-7.305287361
10.77592526,1.320838094,-8.927620888,-7.049255371
10.78067984,1.538584948,-9.556933403,-6.898507595
10.78543443,1.607976794,-9.97567749,-6.709474564
10.79018901,1.521835208,-10.31785107,-6.644868374
10.79494359,1.672582984,-10.86341476,-6.766902447
10.79969818,1.770688772,-11.18405342,-7.05164814
10.80445276,1.751546144,-11.40658569,-7.252645493
10.80920734,1.835294962,-11.63629627,-7.379465103
10.81396198,1.847259045,-11.61954689,-7.334001541
10.81871656,2.060220242,-11.73918819,-7.317251682
10.82347115,2.086541414,-11.65065384,-7.460821152
10.82822573,1.969292998,-11.54297638,-7.594819069
10.83298031,1.739582062,-11.37308598,-7.738388538
10.8377349,1.43808639,-11.1505537,-7.877171993
10.84248948,1.201196909,-10.96869946,-8.202595711
10.84724406,1.016949654,-10.75813103,-8.487341881
10.85199864,0.8422735929,-10.76530933,-8.513663292
10.85675323,0.7704889178,-10.73659515,-8.15473938
10.86150781,0.8039883971,-10.6480608,-7.810173035
10.8662624,1.256231904,-10.83230782,-8.092526436
10.87101698,1.35912323,-10.82512951,-7.999206066
10.87577156,1.241874933,-10.71027374,-7.819744587
10.88052615,1.105484009,-10.56909752,-7.690532207
10.88528073,0.7824530005,-10.12403297,-7.424928665
10.89003531,1.00737834,-10.04985523,-7.688138962
10.8947899,1.634297848,-10.23410225,-8.377271652
10.89954453,1.603191137,-10.04985523,-8.307880402
10.90429906,1.600798368,-10.04506969,-8.207381248
10.9090537,1.909472466,-10.47817039,-8.863015175
10.91380828,1.828116536,-10.54516983,-9.037691116
10.91856286,1.533799291,-10.45424175,-8.937192917
10.92331745,1.261017561,-10.23888779,-8.752944946
10.92807203,0.8638089895,-9.961320877,-8.752944946
10.93282661,0.342173636,-9.7196455,-8.824729919
10.9375812,-0.1555334777,-9.631111145,-8.863015175
10.94233578,-0.5431707501,-9.607182503,-8.87258625
10.94709036,-1.15094769,-9.576076508,-8.877371788
10.95184495,-1.727617979,-9.616754532,-8.908478737
10.95659953,-1.971685886,-9.544969559,-8.884550095
10.96135411,-2.294716835,-9.422935486,-8.812766075
10.9661087,-2.249253273,-9.181260109,-8.568697929
10.97086328,-2.012363911,-8.896514893,-8.307880402
10.97561786,-1.746760488,-8.609375954,-8.035098076
10.98037245,-1.462014675,-8.307880402,-7.702496052
10.98512703,-1.155733347,-8.102097511,-7.338787079
10.98988161,-0.784845829,-7.96331358,-6.972685337
10.9946362,-0.4163511395,-7.867600918,-6.56829834
10.99939078,-0.08853443712,-7.838887215,-6.151947021
11.00414536,0.1363908947,-7.881958008,-5.797809124
11.00889995,0.3541377485,-7.893921852,-5.560919762
11.01365453,0.5718846321,-8.00638485,-5.38624382
11.01840911,0.7944171429,-8.145168304,-5.24506712
11.0231637,0.9667003751,-8.293522835,-5.146961689
11.02791828,1.098305583,-8.408378601,-5.082355499
11.03267286,1.225125194,-8.547162056,-5.046463013
11.03742745,1.409372568,-8.614161491,-5.012963295
11.04218203,1.629512191,-8.630910873,-4.98903513
11.04693661,1.859223247,-8.623732567,-5.005784988
11.0516912,2.129612207,-8.611768723,-5.111069202
11.05644578,2.328216314,-8.604590416,-5.316852093
11.06120036,2.490928411,-8.628518105,-5.649454117
11.06595495,2.593819857,-8.618947029,-6.089733601
11.07070953,2.646461725,-8.537590981,-6.61854744
11.07546411,2.723032236,-8.372486115,-7.142575741
11.0802187,2.890529871,-8.130811691,-7.740781307
11.08497328,2.584248543,-8.087740898,-8.293522835
11.08972786,2.52682066,-7.934599876,-8.805587769
11.09448245,2.545963287,-7.874779224,-9.174081802
11.09923703,2.533999205,-7.889136314,-9.422935486
11.10399161,2.416750908,-7.97767067,-9.559326172
11.1087462,2.251646042,-8.037490845,-9.590433121
11.11350078,1.866401672,-8.102097511,-9.523433685
11.11825536,1.512263894,-8.078168869,-9.243474007
11.12300995,1.172483087,-7.987242222,-8.805587769
11.12776453,0.7465606928,-7.838887215,-8.228917122
11.13251911,0.4139583111,-7.712067604,-7.616354465
11.1372737,0.2344966233,-7.530212879,-7.147361279
11.14202828,0.1339980662,-7.391428947,-6.943971157
11.14678286,0.1651047617,-7.233502865,-7.00139904
11.15153745,0.1938186288,-7.058826923,-7.188039303
11.15629203,0.2584248483,-6.869793892,-7.396214962
11.16104661,0.3158525825,-6.774080753,-7.800601959
11.1658012,0.3206382394,-6.726224422,-8.437092781
11.17055578,0.337387979,-6.82433033,-9.229117393
11.17531036,0.3014956415,-7.018148899,-9.884750366
11.18006495,0.2392822653,-7.288537979,-10.22931671
11.18481953,0.2464607358,-7.551748276,-10.19581699
11.18957411,0.2464607358,-7.793423176,-9.872786522
11.1943287,0.2081755698,-7.908278942,-9.420542717
11.19908328,0.1483550072,-7.941778183,-8.898907661
11.20383786,0.02153540403,-7.822137356,-8.386843681
11.20859245,-0.1674975902,-7.551748276,-8.032705307
11.21334703,-0.3708875179,-7.278966427,-7.850851059
11.21810161,-0.5431707501,-7.008577347,-7.910671711
11.2228562,-0.6747759581,-6.754938126,-8.161917686
11.22761078,-0.760917604,-6.561119556,-8.575876236
11.23236536,-0.8494520187,-6.419943333,-9.114261627
11.23711995,-0.9164510965,-6.386443615,-9.573683739
11.24187453,-0.9954141974,-6.443871498,-9.796216011
11.24662911,-1.000199914,-6.56829834,-9.762716293
11.2513837,-0.993021369,-6.683153629,-9.346364975
11.25613828,-0.9164510965,-6.778866768,-8.628518105
11.26089286,-0.7178468108,-6.900900364,-7.733603001
11.26564745,-0.342173636,-6.929614544,-6.972685337
11.27040203,0.1651047617,-6.946363926,-6.589833736
11.27515661,0.5096712112,-6.912864685,-6.601797581
11.2799112,0.7489534616,-6.735795975,-6.838686943
11.28466578,0.8350951076,-6.625725746,-7.255038261
11.28942036,0.8063812256,-6.338587284,-7.764709473
11.29417495,0.7465606928,-6.101697922,-8.286344528
11.29892953,0.5838487148,-5.77148819,-8.580661774
11.30368411,0.6317051649,-5.546562672,-8.714659691
11.3084387,0.6963114142,-5.280959606,-8.731410027
11.31319323,0.6364908218,-4.929214478,-8.618947029
11.31794786,0.7465606928,-4.680361271,-8.494520187
11.32270245,0.6843472719,-4.393222332,-8.295916557
11.32745698,0.5455635786,-3.955335855,-7.970492363
11.33221156,0.35174492,-3.486342669,-7.91306448
11.33696614,0.02632104978,-2.979064226,-7.384250641
11.34172073,-0.2416750938,-2.76371026,-7.326822758
11.34647531,-0.5120640397,-2.639283419,-7.149754047
11.3512299,-1.131805062,-2.344966173,-6.977470875
11.35598448,-1.11984098,-2.457428932,-6.903293133
11.36073906,-1.229910851,-2.57228446,-6.82433033
11.36549364,-1.371087432,-2.306680918,-6.805187702
11.37024823,-1.43808639,-2.469393015,-6.506084919
11.37500281,-1.564906001,-2.459821701,-6.163911343
11.3797574,-1.497906923,-2.335394859,-5.934200287
11.38451198,-1.251446247,-2.555534601,-6.01316309
11.38926656,-1.524227977,-2.33300209,-5.919843197
11.39402114,-1.536192179,-2.175075769,-5.862415314
11.39877573,-1.689332843,-2.105684042,-6.039484501
11.40353031,-2.103291035,-1.730010748,-6.101697922
11.4082849,-1.926222205,-1.607976794,-6.290730953
11.41303948,-2.065006018,-1.244267821,-6.336194515
11.41779406,-2.242074728,-0.6101697683,-6.364908218
11.42254865,-1.765903115,-0.5551348329,-6.338587284
11.42730318,-1.450050473,-0.2321037948,-6.29790926
11.43205781,-1.655833244,0.2129612118,-6.068198204
11.43681234,-1.313659668,-0.1339980662,-6.250052929
11.44156693,-1.430907965,-0.1100698411,-6.24766016
11.44632151,-1.347159147,-0.01914258115,-6.288337708
11.45107609,-0.8590233326,-0.1938186288,-6.317051888
11.45583068,-0.6747759581,-0.3230310678,-6.326622963
11.46058526,-0.760917604,0.08135596663,-6.393621922
11.46533984,-0.5934200287,-0.03349951655,-6.269195557
11.47009443,-0.7178468108,-0.1268195957,-6.089733601
11.47484901,-0.5335994363,-0.3493520916,-5.941378593
11.47960359,-0.4546363056,-0.5934200287,-5.931807518
11.48435818,-0.5312066078,-0.813559711,-5.96291399
11.48911276,-0.7202396393,-1.026520967,-6.094519138
11.49386734,-0.8111668825,-1.220339537,-6.367300987
11.49862193,-0.9595218897,-1.261017561,-6.687939167
11.50337651,-1.088734269,-1.270588875,-6.991827965
11.50813109,-1.241874933,-1.19880414,-7.231110096
11.51288568,-1.43808639,-0.9858429432,-7.458428383
11.51764026,-1.610369682,-0.7585247755,-7.688138962
11.52239484,-1.684547186,-0.5503492355,-7.953742504
11.52714938,-1.737189293,-0.394815743,-8.21216774
11.53190396,-1.655833244,-0.3038884699,-8.401200294
11.53665854,-1.574477315,-0.3469592929,-8.437092781
11.54141312,-1.529013634,-0.457029134,-8.429914474
11.54616771,-1.442872047,-0.5670989752,-8.365307808
11.55092229,-1.287338614,-0.7058826685,-8.26241684
11.55567688,-1.138983607,-0.8733802438,-8.15473938
11.56043146,-0.9547362328,-1.074377418,-8.063812256
11.56518604,-0.8015955687,-1.251446247,-8.025527
11.56994063,-0.7369893789,-1.385444283,-8.023134232
11.57469521,-0.7585247755,-1.476371527,-8.030312538
11.57944979,-0.8015955687,-1.524227977,-8.106883049
11.58420438,-0.8063812256,-1.631905079,-8.267202377
11.58895891,-0.7680960894,-1.787438512,-8.429914474
11.59371349,-0.7010970116,-1.942971945,-8.475378036
11.59846807,-0.6604190469,-2.072184324,-8.480163574
11.60322266,-0.6101697683,-2.155933142,-8.432307243
11.60797724,-0.7345965505,-2.14157629,-8.432307243
11.61273182,-0.8566305041,-2.096112728,-8.444271088
11.61748641,-0.9379864931,-2.055434704,-8.513663292
11.62224099,-1.014556766,-1.959721804,-8.542376518
11.62699557,-1.03848505,-1.856830359,-8.475378036
11.63175016,-1.024128079,-1.789831281,-8.372486115
11.63650474,-0.9834501147,-1.739582062,-8.238488197
11.64125927,-0.8685946465,-1.703689694,-8.214560509
11.64601385,-0.732203722,-1.663011789,-8.269595146
11.65076844,-0.5766702294,-1.591227055,-8.303094864
11.65552302,-0.3924229145,-1.543370605,-8.269595146
11.6602776,-0.2703889608,-1.543370605,-8.142775536
11.66503219,-0.1698904037,-1.579262972,-7.867600918
11.66978677,-0.1196411327,-1.684547186,-7.587640762
11.67454135,-0.1268195957,-1.804188251,-7.38664341
11.67929594,-0.2799602449,-1.899901152,-7.238288403
11.68405052,-0.4546363056,-2.005185366,-7.176074982
11.68880505,-0.4402793646,-2.179861546,-7.094718933
11.69355964,-0.9571290612,-2.189432621,-7.238288403
11.69831422,-1.179661512,-2.251646042,-7.353144169
11.7030688,-1.234696507,-2.330609322,-7.436892986
11.70782339,-0.9547362328,-2.660818815,-7.429714203
11.71257797,-1.50269258,-2.517249346,-7.350750923
11.71733255,-1.55054903,-2.538784742,-7.276573658
11.72208714,-1.536192179,-2.593819857,-7.238288403
11.72684167,-0.9332008362,-2.955136061,-7.216753006
11.73159625,-1.600798368,-2.830709219,-7.51346302
11.73635083,-1.911865234,-2.703889608,-7.893921852
11.74110542,-1.947757602,-2.68713975,-8.482556343
11.74586,-1.222732425,-3.136990547,-8.946763992
11.75061458,-1.983649969,-2.706282377,-8.805587769
11.75536917,-2.055434704,-2.550748825,-8.697910309
11.76012375,-1.813759565,-2.522035122,-8.542376518
11.76487828,-1.239482164,-2.79720974,-8.358129501
11.76963286,-1.387837172,-2.830709219,-8.145168304
11.77438745,-1.734796405,-2.615355253,-7.726424217
11.77914203,-1.617548108,-2.684746981,-7.67138958
11.78389661,-1.354337573,-2.799602509,-7.597211838
11.7886512,-1.031306505,-3.046063185,-7.534998417
11.79340573,-0.8733802438,-3.354737282,-7.515855789
11.79816031,-0.5575276613,-3.811766386,-7.587640762
11.8029149,-0.4785645306,-4.053441525,-7.195217609
11.80766948,-0.6197410822,-4.235296249,-6.740581512
11.81242406,-0.5910272002,-4.563112736,-6.443871498
11.81717864,-0.5216353536,-4.886143684,-6.202196121
11.82193323,-0.4689932466,-5.218746185,-5.965306759
11.82668781,-0.2560320199,-5.62791872,-5.663811207
11.83144234,-0.3206382394,-5.91266489,-5.601597786
11.83619693,-0.4019941986,-6.216553211,-5.560919762
11.84095151,-0.4474578202,-6.467799664,-5.568098068
11.84570609,-0.5742774606,-6.683153629,-5.663811207
11.85046068,-0.5120640397,-6.982256413,-5.838487148
11.85521526,-0.7154539824,-7.223931789,-6.128018856
