Time (s),Acceleration x (m/s^2),Acceleration y (m/s^2),Acceleration z (m/s^2)
9.004730431,-3.54127776835667,2.20593726431324,-0.45282327706042214
9.009485639,-3.5856443648580383,2.454418503840869,-0.39781455675275534
9.014240795,-3.6292368504090815,2.702367896983653,-0.3431765737473029
9.018996004,-3.6716817525326877,2.94857101006131,-0.2889921985311821
9.023751212,-3.7125316182970076,3.191798117748638,-0.23532908052488952
9.02850642,-3.751264022536472,3.4308119373579147,-0.1822393860829053
9.033261629,-3.7872816483041887,3.6643754461750033,-0.12975973783078254
9.038016785,-3.8199135046375305,3.8912597162156595,-0.07791135929725353
9.042771993,-3.8484173326605466,4.110251702580499,-0.02670042829030493
9.047527202,-3.8719832353600867,4.32016192413522,0.02388135814637385
9.05228241,-3.8897385493541954,4.519831978405318,0.07385600527577227
9.057037618,-3.9007539589471,4.7081418362261855,0.12325822818658302
9.061792827,-3.9040508340401607,4.88401686571524,0.17213424674487426
9.066547983,-3.8986097543178824,5.046434539440525,0.2205403719638393
9.071303191,-3.883380162810685,5.19443078317549,0.26854139072147887
9.0760584,-3.857291072714971,5.327105929281701,0.31620875893465467
9.080813608,-3.8192627325155626,5.4436302424763,0.3636186165565951
9.085568816,-3.7682191363323407,5.543248990446038,0.4108496410225545
9.090324025,-3.7031012493641646,5.625287036392283,0.4579807590167818
9.095079181,-3.622880802718548,5.689152935049483,0.505088739691238
9.099834389,-3.5265744981942344,5.734342517911064,0.5522456957157855
9.104589598,-3.4132584520981895,5.760441957204915,0.599516521702835
9.109344806,-3.2820826982237303,5.767130301477465,0.6469563025135404
9.114100014,-3.1322855638677964,5.75418147840279,0.6946077266154317
9.11885517,-2.9632077292666503,5.721465762628172,0.7424985419545012
9.123610379,-2.7743057800192608,5.668950708173202,0.7906390936816237
9.128365587,-2.5651650638292907,5.5967015462514755,0.8390199844829925
9.133120795,-2.335511667102156,5.504881050544434,0.8876098991383662
9.137876004,-2.085223333471164,5.393748873075043,0.9363536351888139
9.142631212,-1.8143391551174692,5.2636603550229095,0.9851703811564189
9.147386368,-1.5230678787565548,5.115064818175973,1.0339522825518106
9.152141577,-1.2117946813806668,4.948503344275707,1.0825633338979188
9.156896785,-0.881086286240464,4.764606051293549,1.1308386322280162
9.161651993,-0.5316943070036637,4.56408887765904,1.178584024095442
9.166407202,-0.16455672731695578,4.347749887621208,1.2255761742036648
9.17116241,0.21920255617910747,4.1164651132549634,1.2715630794450214
9.175917566,0.618276177273221,3.8711839511376063,1.3162650474874233
9.180672775,1.0311777568967195,3.6129241344458443,1.3593761540882383
9.185427983,1.4562483761861948,3.342766304190168,1.4005661880407567
9.190183191,1.8916650446250363,3.061848206524684,1.4394830870585675
9.1949384,2.335451117354345,2.77135854652686,1.475755861944372
9.199693608,2.7854885910499703,2.472530532461553,1.5089980000173486
9.204448764,3.2395321833473627,2.166635148200367,1.5388113319242784
9.209203973,3.695225077099909,1.8549741950009426,1.564790338559
9.213959181,4.15011618827648,1.5388731471010357,1.586526866720841
9.218714389,4.601678795477254,1.2196738684015866,1.6036152130969439
9.223469598,5.047330350164843,0.8987272397592817,1.6156575258587123
9.228224754,5.484453269924598,0.5773857479505179,1.622269461528271
9.232979962,5.910416502477249,0.2569960881227863,1.6230860221517314
9.23773517,6.322597635877086,-0.061108168463025955,1.6177674850377297
9.242490379,6.718405320490208,-0.375613790221317,1.6060053255152098
9.247245587,7.095301761139957,-0.6852349343581065,1.5875280236228353
9.252000795,7.450825033425428,-0.9887199801495756,1.5621066397502013
9.256755952,7.782610976869179,-1.2848580981326516,1.529560043399586
9.26151116,8.088414419420339,-1.5724855077582163,1.4897596845370167
9.266266368,8.36612949307446,-1.8504913769657885,1.4426338088111452
9.271021577,8.613808809109623,-2.1178233185503985,1.3881710354228836
9.275776785,8.829681273851193,-2.3734924405942888,1.3264232375876241
9.280531941,9.012168342069975,-2.6165779120802943,1.257507687499695
9.28528715,9.159898524886579,-2.8462310103691815,1.1816084475771875
9.290042358,9.271719991728052,-3.061678624508538,1.0989770054446943
9.294797566,9.346711130472071,-3.2622261970402833,1.00993216103779
9.299552775,9.384188955567474,-3.4472600965698916,0.9148591813440248
9.304307983,9.383715280332467,-3.616249423285763,0.8142082432816498
9.309063139,9.34510059698534,-3.7687472593681552,0.7084921894405791
9.313818348,9.268405636430254,-3.9043913853649324,0.5982836255649399
9.318573556,9.153940609130938,-4.022904491703627,0.48421139286628234
9.323328764,9.00226215782553,-4.124093921100565,0.3669564523721722
9.328083973,8.814168081469521,-4.207850982278199,0.24724722236353594
9.332839181,8.590689916861345,-4.274149877761585,0.12585441344800072
9.337594337,8.333083489328843,-4.323046288391174,0.003585408949003413
9.342349545,8.042817566198261,-4.354675654522075,-0.11872175888626778
9.347104754,7.721560766176832,-4.369251188791112,-0.24020478372174875
9.351859962,7.371166893994875,-4.3670616480692415,-0.35998375522560716
9.35661517,6.993658882546631,-4.348468883174398,-0.4771680657616067
9.361370379,6.591211534359892,-4.313905174716403,-0.5908634918305551
9.366125535,6.166133260668805,-4.263870353041154,-0.7001793851723912
9.370880743,5.720847019927556,-4.19892869097033,-0.8042359059014256
9.375635952,5.25787065855968,-4.119705551349526,-0.9021712294147913
9.38039116,4.779796855219919,-4.026883768392168,-0.993148661330622
9.385146368,4.289272865890098,-3.921199742753286,-1.0763636008513087
9.389901525,3.788980261038719,-3.8034392347994253,-1.1510503015928786
9.394656733,3.2816148386010977,-3.6744328479096167,-1.216488387433337
9.399411941,2.769866888446433,-3.5350512030278725,-1.2720090864390734
9.40416715,2.256401975410133,-3.3861998163065237,-1.317001146846941
9.408922358,1.743842398326821,-3.228813702792573,-1.3509163956855716
9.413677566,1.2347494711568228,-3.063851740050707,-1.3732748947470028
9.418432723,0.7316067590315344,-2.8922908358304613,-1.3836696431807554
9.423187931,0.23680438709793264,-2.7151199528735095,-1.3817707742378824
9.427943139,-0.24737547603742396,-2.5333340511846765,-1.3673291977990518
9.432698348,-0.7187718749750052,-2.3479280130234503,-1.3401796497608065
9.437453556,-1.1753569952038074,-2.159890618193461,-1.3002431209832193
9.442208712,-1.6152467080083885,-1.970198636979302,-1.2475286487349506
9.44696392,-2.036709693049719,-1.779811105685853,-1.1821344606712483
9.451719129,-2.4381751124260798,-1.5896638456838261,-1.104248465753609
9.456474337,-2.818238822796575,-1.4006642816500714,-1.0141480894613226
9.461229545,-3.175668124500362,-1.213686608722539,-0.9121994532330611
9.465984754,-3.509405058473057,-1.029567351849465,-0.7988559008606975
9.47073991,-3.818568272962558,-0.8491013538360591,-0.6746558776653151
9.475495118,-4.102453492409901,-0.673038221510403,-0.5402201716145453
9.480250327,-4.360532630345738,-0.5020792520542454,-0.3962485289470742
9.485005535,-4.592451596852593,-0.336874853936945,-0.2435156602969413
9.489760743,-4.798026859199789,-0.1780224691762266,-0.0828666568071106
9.4945159,-4.977240821781979,-0.02606499597146316,0.08478816062159493
9.499271108,-5.1302360985301405,0.11851029675954888,0.2584789319352767
9.504026316,-5.25730875749425,0.2552723786504196,0.4371824573224448
9.508781525,-5.35890062323974,0.383846613526224,0.6198288701602511
9.513536733,-5.435590727951808,0.5039144903171783,0.8053087440320251
9.518291941,-5.488086006615016,0.6152129638363355,0.9924805900783373
9.523047098,-5.5172113352693515,0.7175334448908773,1.1801786967012917
9.527802306,-5.523899014087612,0.8107204831019634,1.3672212594568203
9.532557514,-5.509177798818418,0.8946701885906078,1.552418744891499
9.537312723,-5.474161584940762,0.9693284402472699,1.7345824281513287
9.542067931,-5.420037848656708,1.0346889286010912,1.912533040443428
9.546823139,-5.348055947641255,1.0907910803476972,2.0851094589133976
9.551578295,-5.259515382341495,1.1377179094170333,2.251177368298451
9.556333504,-5.155754115616728,1.175593836115243,2.4096378209747797
9.561088712,-5.038137044634849,1.2045825114266435,2.5594356199391957
9.56584392,-4.908044714194352,1.2248846781272975,2.6995674480843426
9.570599129,-4.766862355106209,1.236736094122197,2.829089667060573
9.575354285,-4.615969325089203,1.2404055366105236,2.94712571021698
9.580109493,-4.456729022947008,1.2361928985611055,3.052872996660635
9.584864702,-4.290479339704951,1.2244273817927624,3.1456092974044725
9.58961991,-4.118523702956875,1.205465783962946,3.224698489878582
9.594375118,-3.9421227629684634,1.1796908702603688,3.289595643652487
9.599130275,-3.7624867611720516,1.147509814861976,3.3398513878330465
9.603885483,-3.5807686136504446,1.1093526924861585,3.375115518940607
9.608640691,-3.398057734147164,1.065670996792054,3.3951398167634843
9.6133959,-3.215374613211573,1.0169361599846034,3.3997800444385478
9.618151108,-3.033666162502671,0.9636380467698956,3.3889971176247453
9.622906264,-2.8538018262568197,0.9062833957195405,3.3628574360699335
9.627661473,-2.676570455618923,0.8453941820841789,3.321532379084925
9.632416681,-2.502677935979032,0.7815058780538653,3.2652969743367857
9.637171889,-2.332745552603857,0.7151655892656822,3.194527756816819
9.641927098,-2.1673090756291167,0.6469300498462864,3.1096998417174913
9.646682254,-2.0068185417947833,0.5773634622808741,3.0113832412224752
9.651437462,-1.8516387070734566,0.5070351727527588,2.900238460876629
9.65619267,-1.7020501414913947,0.4365171771333802,2.7770114162676016
9.660947879,-1.5582509349121543,0.36638145736366734,2.6425277152104063
9.665703087,-1.4203589802767351,0.2971971524208443,2.4976863544569294
9.670458295,-1.2884147987029129,0.22952757231623563,2.343452883135555
9.675213504,-1.162384868903052,0.16392706756662503,2.180852087666118
9.67996866,-1.0421654216007823,0.10093777029413803,2.0109602548198233
9.684723868,-0.9275866580769149,0.04108622650908077,1.8348970709578512
9.689479077,-0.8184173507452989,-0.01512005781644475,1.653817216382297
9.694234285,-0.7143697828373531,-0.06719613159969899,1.4689017143044325
9.698989441,-0.6151049839011585,-0.11468314685315409,1.281349094325118
9.70374465,-0.5202382178631852,-0.15715191076813145,1.0923664306587004
9.708499858,-0.429344680759154,-0.194206410639395,0.9031603157168937
9.713255066,-0.3419653657930474,-0.22548727934799434,0.7149278301777132
9.718010275,-0.25761305402335116,-0.25067516816887303,0.5288475713178117
9.722765483,-0.17577838963193423,-0.2694939930136774,0.34607080212849134
9.727520639,-0.09593599936511184,-0.28171401987263883,0.16771278446203505
9.732275848,-0.017550616326328896,-0.28715475520362144,-0.005155639929724152
9.737031056,0.0599168311653721,-0.28568760735057797,-0.1715161561688405
9.741786264,0.13700320444048839,-0.27723828577146387,-0.3304107063550582
9.746541473,0.21423725134207036,-0.26178890592598375,-0.48094877865103636
9.751296629,0.2921338527423326,-0.23937976911963363,-0.6223141915126111
9.756051837,0.3711884555540871,-0.21011078841709366,-0.7537713101653122
9.760807045,0.45187172797932196,-0.17414253391229367,-0.8746706338283676
9.765562254,0.5346244712819723,-0.1316968731584726,-0.9844536940900678
9.770317462,0.6198528205214144,-0.08305718539924313,-1.082657207285667
9.775072618,0.707923764435648,-0.02856813137226287,-1.168916426748668
9.779827827,0.7991610120406174,0.03136503615443071,-1.2429676443965252
9.784583035,0.8938412305528928,0.09627763234067446,-1.3046497952505016
9.789338243,0.9921906760092284,0.16564717814339466,-1.353905123170503
9.794093452,1.0943822345347003,0.23889551951264337,-1.3907788713752822
9.798848608,1.2005328886880593,0.3153914271198456,-1.4154179674448306
9.803603816,1.3107016197693362,0.39445367135809867,-1.42806868003379
9.808359025,1.4248877535833342,0.4753545625882428,-1.4290732347556003
9.813114233,1.5430297543717715,0.5573239415272869,-1.4188653920121839
9.817869441,1.6650044701892912,0.6395535993701581,-1.397965012545913
9.822624598,1.7906268333785538,0.7212021019644784,-1.3669716671558882
9.827379806,1.9196500215283478,0.8013999875903176,-1.3265573805329252
9.832135014,2.0517660860031715,0.879255304149012,-1.2774586280794626
9.836890223,2.186607055423982,0.95385944913239,-1.2204677237827337
9.841645431,2.3237465197869933,1.0242932745697653,-1.156423746347447
9.846400587,2.4627016975509157,1.0896334189284904,-1.0862031525124833
9.851155795,2.602935983727473,1.1489588283064474,-1.0107102236610477
9.855911004,2.7438619724180495,1.20135742989486,-0.9308674863906333
9.860666212,2.884844942710863,1.245932921399542,-0.8476062406298379
9.86542142,3.0252067924984942,1.2818116407721616,-0.7618573206072236
9.870176577,3.1642304005648683,1.3081494811714387,-0.674542204618547
9.874931785,3.301164393139094,1.3241388165295003,-0.5865645790735501
9.879686993,3.435228286917885,1.3290154034129351,-0.4988024506626523
9.884442202,3.5656179762082005,1.322065224976665,-0.41210088764919994
9.88919741,3.6915115272474743,1.3026312426151747,-0.3272654573501478
9.893952618,3.8120752379082257,1.270120020320737,-0.24505641200510336
9.898707775,3.9264699160056313,1.2240081856851213,-0.1661836596999178
9.903462983,4.03385732455384,1.1638486898863547,-0.09130254107806614
9.908218191,4.1334067378877775,1.0892768268859354,-0.021010416524980632
9.9129734,4.2243015488944575,1.0000159694830557,0.04415594734392396
9.917728608,4.305745864906277,0.8958829769498814,0.10372221836341856
9.922483764,4.37697102821676,0.7767932258709499,0.15727760740496308
9.927238973,4.437241996737265,0.6427652127160923,0.2044752980097102
9.931994181,4.485863521071626,0.49392467376480054,0.2450322592904997
9.936749389,4.522186056303837,0.3305081654215928,0.27872850818913997
9.941504598,4.54561135001706,0.1528660458801916,0.3054058846935159
9.946259754,4.555597652170256,-0.03853520226048641,0.3249663959856246
9.951014962,4.551664496921133,-0.24311136917280157,0.337370176236576
9.95577017,4.533397010841102,-0.4601596946319757,0.3426331016547866
9.960525379,4.500449706074932,-0.6888588821988891,0.3408240971643418
9.965280587,4.452549721029169,-0.9282700051143457,0.3320621710500931
9.970035743,4.389499475459876,-1.1773383539663338,0.31651321517246234
9.974790952,4.3111787116905935,-1.4348962711238311,0.29438660923015003
9.97954616,4.217545899317799,-1.6996670111791732,0.26593166724871253
9.984301368,4.108638987166394,-1.970269660114999,0.23143396320963835
9.989056577,3.9845754933035002,-2.24522513834663,0.1912115712526545
9.993811733,3.845551931419225,-2.522963303849136,0.1456112547282875
9.998566941,3.691842579706327,-2.8018311609943676,0.09500463744691222
10.00332215,3.523797606446357,-3.080102168387302,0.039784389178515685
10.00807736,3.3418405747393534,-3.3559866249346104,-0.01963954471769645
10.01283257,3.1464653569795877,-3.6276430977155636,-0.08284364270266405
10.01758772,2.9382324974391603,-3.8931908381272744,-0.14939441200832848
10.02234293,2.7177650683051557,-4.150723114494338,-0.21885187848279797
10.02709814,2.4857440704601395,-4.398321370236793,-0.2907729425994976
10.03185335,2.2429034351155734,-4.634070097284191,-0.36471458395749423
10.03660856,1.9900246861721922,-4.856072295329029,-0.4402368972139531
10.04136371,1.7279313260080602,-5.062465369425971,-0.5169059429995583
10.04611892,1.4574830093475521,-5.251437302080734,-0.5942963982628007
10.05087413,1.1795695709365652,-5.4212429220164005,-0.6719939918223485
10.05562934,0.8951049729468759,-5.570220080842174,-0.7495977127713466
10.06038454,0.6050212374678826,-5.696805541315034,-0.8267217818321471
10.0651397,0.31026242834423445,-5.799550377034462,-0.9029973787962131
10.06989491,0.011778745248562764,-5.877134683352687,-0.9780741226895302
10.07465012,-0.2894792085351928,-5.92838140305062,-1.0516213050631942
10.07940533,-0.5925659244439738,-5.952269077930289,-1.1233288805326926
10.08416054,-0.8965461940339787,-5.947943348876273,-1.1929082220538305
10.08891569,-1.2004999634415414,-5.914727042035938,-1.2600926511239132
10.0936709,-1.5035267801887526,-5.85212869737966,-1.3246377549171773
10.09842611,-1.8047497776070953,-5.759849417777249,-1.3863215032123533
10.10318132,-2.1033191452635633,-5.637787941513073,-1.4449441778621532
10.10793647,-2.398415038224978,-5.486043868348951,-1.5003281265770523
10.11269168,-2.689249883831017,-5.3049189981341,-1.5523173511076294
10.11744689,-2.9750700518576374,-5.094916770680823,-1.6007769377545231
10.1222021,-3.2551568626089264,-4.856739825142607,-1.645592335912066
10.12695731,-3.528826917798163,-4.591285725318313,-1.6866684888505319
10.13171246,-3.795431751393233,-4.299640923058345,-1.7239288215178952
10.13646767,-4.054356812050482,-3.983073054352699,-1.7573140941796543
10.14122288,-4.305019804876462,-3.643021681177924,-1.786781138334876
10.14597809,-4.546868436846856,-3.2810876066883603,-1.812301500638181
10.1507333,-4.7793776258653,-2.8990209022429756,-1.8338600284835944
10.15548845,-5.002046247230262,-2.4987077927244314,-1.8514534351324439
10.16024366,-5.214393502951416,-2.0821565522871,-1.8650888822249825
10.16499887,-5.415955009031402,-1.6514825665268331,-1.8747826141128616
10.16975408,-5.606278703612462,-1.2088927193428625,-1.880558673156633
10.17450929,-5.784920684792676,-0.7566692635614828,-1.8824477192572282
10.17926444,-5.951441090929323,-0.29715333373127334,-1.8804859713083357
10.18401965,-6.10540013837186,0.16727174264072822,-1.8747142834402017
10.18877486,-6.246354431823309,0.6341971827831334,-1.8651773650571823
10.19353007,-6.3738536609382646,1.1012053877770538,-1.8519231507392155
10.19828528,-6.487437793342393,1.565886342119959,-1.8350023239544895
10.20304043,-6.58663486899078,2.025853640595983,-1.8144679970439923
10.20779564,-6.670959493618311,2.4787600183145067,-1.7903755489047375
10.21255085,-6.739912119886036,2.922312269778641,-1.762782621034972
10.21730606,-6.79297919361285,3.3542854536397977,-1.7317492719501655
10.22206126,-6.829634229196155,3.772536291163127,-1.6973382893078153
10.22681642,-6.849339863092131,4.175015678154876,-1.6596156582788155
10.23157163,-6.851550917305196,4.559780241994838,-1.618651183634852
10.23632684,-6.8357184865716905,4.925002887314316,-1.5745192615418706
10.24108204,-6.801295043675538,5.2689822856232125,-1.5272997950816116
10.2458372,-6.747740537449454,5.590151275692939,-1.4770792450873238
10.25059241,-6.674529437837941,5.887084152637141,-1.4239518050603102
10.25534762,-6.581158662284748,6.158502834318008,-1.3680206858337005
10.26010283,-6.467156298025655,6.403281903879183,-1.309399492373857
10.26485798,-6.332091015989663,6.620452536803023,-1.248213671763361
10.26961319,-6.175582054321677,6.809205329828408,-1.184602008097123
10.2743684,-5.997309633448671,6.968892057238807,-1.1187181368532113
10.27912361,-5.797025650556156,7.099026387313497,-1.0507320483859914
10.28387882,-5.574564489740179,7.199283598001719,-0.9808315476303907
10.28863402,-5.329853775271465,7.269499336033257,-0.9092236349560501
10.29338918,-5.062924889510751,7.309667467684976,-0.8361357713692531
10.29814439,-4.773923074048048,7.319937072331037,-0.7618169899134996
10.3028996,-4.46311693251492,7.30060863184196,-0.6865388141843711
10.30765481,-4.130907156136673,7.2521294700381125,-0.6105959444189074
10.31240996,-3.7778342983764652,7.175088496934274,-0.5343066717414897
10.31716517,-3.404585432925203,7.070210312610776,-0.4580129819417617
10.32192038,-3.0119995397516743,6.938348725358425,-0.3820803116904763
10.32667559,-2.6010714768524097,6.780479738367897,-0.3068969223905143
10.3314308,-2.172954410594794,6.597694058724867,-0.2328728599072797
10.33618595,-1.728960594966405,6.39118918186089,-0.16043847221476187
10.34094116,-1.2705604094393481,6.1622611039222255,-0.09004246152726153
10.34569637,-0.7993795863051075,5.912295713781903,-0.02214945275712601
10.35045158,-0.31719458097173603,5.642759915666558,0.04276293387170893
10.35520673,0.17407393743459573,5.355192532638532,0.10420751154645626
10.35996194,0.6723694730187705,5.0511950405090555,0.16169145508206864
10.36471715,1.1755099399463476,4.732422181197014,0.21472071881133212
