Time (s),Acceleration x (m/s^2),Acceleration y (m/s^2),Acceleration z (m/s^2)
6.001144723,-0.30753138744447117,0.3422262960899703,1.8828150919758058
6.006145389,-0.46836319477695726,0.6509507474121975,1.9133999084856521
6.011145355,-0.6201924748369455,0.9435964711721635,1.9354629768202884
6.016145255,-0.7610772577737508,1.216274164520678,1.9551241600964508
6.021145255,-0.8897513476629748,1.4660095030582214,1.9782560105426432
6.026145288,-1.0056903995620494,1.690977373481434,2.0102351651443535
6.031145288,-1.1091424438841901,1.8907138539273176,2.055730983642473
6.036145288,-1.2011193777740352,2.0662918315989964,2.118538610431654
6.041145288,-1.2833476609935122,2.2204459871471975,2.2014604252669137
6.046145288,-1.3581783378789252,2.357633456618031,2.3062365817734434
6.051145288,-1.4284584643120464,2.4840178596530773,2.433522261593078
6.056145254,-1.4973679575414318,2.6073665749497303,2.582906607935057
6.06114592,-1.5682277237278952,2.736854126144028,2.752966208026718
6.066146586,-1.6442865797536088,2.8827682443886102,2.941344570138475
6.071146619,-1.728495907028258,3.056119486127282,3.1448483195316332
6.076146619,-1.8232821007576565,3.2681600560375257,3.359550776393777
6.081146619,-1.9303276663842033,3.5298225391557945,3.580894062410308
6.086146585,-2.0503722271088445,3.8510943954170855,3.803781768534485
6.091146585,-2.1830446818225746,4.240349125640185,4.022655447333926
6.096146585,-2.3267371939955197,4.703659783782658,4.231549912749242
6.101146618,-2.478530498406367,5.244124760045138,4.424124849047427
6.106146651,-2.6341781550006886,5.861239207221746,4.593673752725833
6.111146651,-2.788154951336555,6.550347764297898,4.733115525065554
6.116146651,-2.9337718420708425,7.302214941344331,4.834978409657065
6.121146651,-3.063356806387952,8.102748321067155,4.891389615987724
6.126146651,-3.168497942722858,8.932906409488595,4.894086294831559
6.131146651,-3.2403421044629477,9.768817514121155,4.8344642485917815
6.136146617,-3.269939506645787,10.582128576270172,4.703679804866348
6.141146617,-3.2486221152674934,11.34059368238629,4.492817719372953
6.146146617,-3.1684013930750465,12.008901368054696,4.193133958329451
6.15114665,-3.022369239002812,12.549728232294,3.796376970111217
6.15614665,-2.805084826387477,12.924994302446773,3.2951848959170853
6.16114665,-2.512929603021849,13.097283598550685,2.683549464068082
6.166146716,-2.1444130290894106,13.031382050895095,1.9573304919108432
6.171146716,-1.7004127335257633,12.69587495283705,1.1147984416319972
6.176146716,-1.1843346647585746,12.06473810181208,0.15717680415459911
6.181146749,-0.6021814599106283,11.118851279955543,-0.9108483336307626
6.186146749,0.037479411695830786,9.847360273890333,-2.0806869361206477
6.191146749,0.7236522514208951,8.248814653653636,-3.339508019640111
6.196146749,1.4431545977989257,6.332013305187538,-4.670041635825935
6.201146749,2.180958930607822,4.116498340406814,-6.050550612820223
6.206146749,2.9206250891364998,1.632650383452295,-7.454996698811683
6.211146749,3.644809070327291,-1.078645987035783,-8.853417570142287
6.216146749,4.335829431290514,-3.966779241755499,-10.212521287106668
6.221146749,4.976268745123337,-6.97262229056792,-11.496493661170616
6.226146782,5.549584722239791,-10.030148488471406,-12.66800217768023
6.231146815,6.04070393790887,-13.068400901769246,-13.68936821669229
6.236146815,6.436570775482166,-16.013743314540626,-14.523868020097439
6.241146781,6.72662533383641,-18.792304069234703,-15.137112894755894
6.246146747,6.903186735645805,-21.33251053517799,-15.498451231360434
6.251146713,6.961722507255777,-23.56760390643292,-15.582329683943094
6.256146679,6.900990353299039,-25.438021924829457,-15.369548774112017
6.261146679,6.723045434724732,-26.893541319659267,-14.848349538672938
6.266146712,6.43311373166582,-27.895082058398923,-14.01527267904272
6.271146745,6.039339659684346,-28.416091254835226,-12.875739807625887
6.276146778,5.552423178975911,-28.44344476095263,-11.444317425021456
6.281146778,4.985167590446424,-27.97782780491812,-9.744637657207232
6.286146778,4.351963561612558,-27.03358111108127,-7.808964898885349
6.291146744,3.668237352964338,-25.63802428501345,-5.677413670767647
6.296146744,2.9498916056692335,-23.830292458018516,-3.3968395086336383
6.301146744,2.212765478441055,-21.65974400282671,-1.019440853590949
6.306146777,1.4721376140933957,-19.18401552528311,1.3988750008629387
6.311146777,0.7422907222728329,-16.466814541344302,3.8002955350873924
6.316146777,0.03615094036936379,-13.575549739679202,6.126999079344679
6.321146743,-0.6349908339364558,-10.578903145728589,8.32305908924604
6.326146709,-1.2616740577829795,-7.544447621933481,10.336270276707374
6.331146675,-1.8363831223053888,-4.536407017055893,12.11981449247135
6.336146675,-2.353587611123285,-1.6136454423135864,13.63369518218075
6.341146708,-2.809716258799517,1.1720423826350164,14.845885735482021
6.346146741,-3.2030733248266943,3.777284712355557,15.733156809382
6.351146774,-3.5337060524115116,6.168093324255126,16.281568021057236
6.356146807,-3.8032314249090797,8.320412067184993,16.48662790598076
6.361146773,-4.014629814860424,10.220251527274272,16.35314112838196
6.366146739,-4.172012505147938,11.863423512171126,15.894772863649264
6.371146705,-4.28036954930853,13.254902803021599,15.133367002539437
6.376146705,-4.345304099448236,14.407855402257628,14.098057836916038
6.381146705,-4.372759233055362,15.342382333018058,12.824215061472575
6.386146738,-4.3687435135330945,16.084036007278982,11.352260408576134
6.391146738,-4.3390620341093555,16.662172318774278,9.726392153598612
6.396146738,-4.2890604405440005,17.10820588314022,7.993251896068219
6.401146738,-4.223390230615031,17.453838128332258,6.200566797685696
6.406146704,-4.1458042612027555,17.72932812573989,4.395799839936593
6.411146704,-4.058991633279933,17.961874085022174,2.6248404344298106
6.41614667,-3.9644607956349525,18.174169302186954,0.9307675302760979
6.42114667,-3.8624787101575015,18.383190088364632,-0.6472832064371271
6.42614667,-3.7520722390989327,18.599264913137766,-2.075117925335597
6.431146703,-3.631095603861576,18.825463843301545,-3.3243210747745606
6.436146703,-3.496364933638028,19.057335601416348,-4.372905765221007
6.441146703,-3.3438577143719317,19.28300654680885,-5.205758852262359
6.446146669,-3.168971533179455,19.483642006477332,-5.814867554999075
6.451146669,-2.9668330781660046,19.634256125016005,-6.199321236176865
6.456146669,-2.732645098252685,19.70484227180399,-6.365089337684689
6.461146702,-2.46205615583929,19.661782571459707,-6.32458409233757
6.466146702,-2.1515357125515413,19.46948284259436,-6.096024218089878
6.471146702,-1.7987355480465328,19.09216865602461,-5.702623044281153
6.476146702,-1.4028178602361354,18.4957698365538,-5.171631128498357
6.481146702,-0.9647307216016824,17.649814953326242,-4.533269108308127
6.486146702,-0.48741290815272537,16.529254506969096,-3.8195909931426626
6.491146668,0.024087537365011524,15.11613184366683,-3.0633210064491823
6.496146634,0.5625933545587191,13.40102438554389,-2.296708090649541
6.501146634,1.1188849295616168,11.384184515935434,-1.5504410066398602
6.506146634,1.6818973159347934,9.076319268429296,-0.8526635058152371
6.511146667,2.2390253569287424,6.498960669188905,-0.22812351973223327
6.516146667,2.776529153982709,3.6843939504162373,0.3025168370367889
6.521146667,3.2800264023593595,0.6751285545479763,0.7231918010979013
6.526146633,3.7350526744320116,-2.4770836280211834,1.0227528770643504
6.531146599,4.127665893100692,-5.71265772261608,1.1950982520210947
6.536146565,4.44506731710327,-8.965967176289817,1.2391164168074604
6.541146565,4.67620865728687,-12.167451182051623,1.158456324573584
6.546146598,4.812353731869885,-15.245954779968487,0.9611419244320679
6.551146631,4.847563573224516,-18.131203870448978,0.6590532983488545
6.556146697,4.779076261298553,-20.75630759183044,0.2672999876781866
6.561146697,4.607557011400217,-23.06017618590355,-0.19648547741142836
6.566146697,4.337200086353455,-24.98974418074463,-0.7129042880993413
6.571146663,3.975671683934022,-26.5018966330092,-1.2615681221618569
6.576146663,3.5338916527378657,-27.565010007484364,-1.8218661696988379
6.581146663,3.0256611298985185,-28.160038269365522,-2.3736941369786755
6.586146696,2.4671522592809563,-28.281097722686752,-2.898119623633937
6.591146696,1.876284281975356,-27.93552950760883,-3.3779620467635922
6.596146696,1.272016813441614,-27.14344475511245,-3.798269986602751
6.601146662,0.6735955478664634,-25.93678249258895,-4.146684187476694
6.606146628,0.09978772799805044,-24.357932998621823,-4.413680151144652
6.611146594,-0.43185550089409075,-22.45799823853043,-4.592689978542954
6.616146594,-0.9056750752683139,-20.294775450415163,-4.680108531523261
6.621146594,-1.3084877078789876,-17.93055941355589,-4.675193808861139
6.626146627,-1.6300522459528277,-15.429863245270388,-4.579875416670619
6.63114666,-1.863400250013191,-12.857156843594783,-4.3984879792413105
6.636146693,-2.005019559804343,-10.27471667168911,-4.137448171916312
6.641146693,-2.0548870233555525,-7.740671025543091,-3.804894731812934
6.646146693,-2.0163537982629554,-5.307311965089994,-3.4103103622538877
6.651146659,-1.8958933561606939,-3.019729560286754,-2.964143010719542
6.656146659,-1.7027282472826328,-0.9148069069466197,-2.4774417425096473
6.661146659,-1.4483565811822794,0.9794035920986967,-1.9615195657595519
6.666146025,-1.1460028796805366,2.643920037090089,-1.4276523190389363
6.671145358,-0.810020349481606,4.068701235837151,-0.8868193421311774
6.676145358,-0.4552726605858991,5.252176945985215,-0.3494883320926704
6.681144691,-0.09652302323624153,6.200480948210011,0.1745562647348095
6.686144691,0.25214318814586906,6.926440247747957,0.6763445939034519
6.691143791,0.5778386761154934,7.44838124204427,1.147817794359322
6.696142857,0.8693173371042308,7.788818092113381,1.5818961893673547
6.701142857,1.1173245911208023,7.973089761746968,1.9725266860582935
6.70614219,1.3148440854199326,8.028010351385497,2.314716767322468
6.711141323,1.457235016509886,7.9805926940882435,2.6045617312856555
6.716140423,1.5422594208798177,7.8568980544759786,2.83927049330678
6.721139523,1.5700036903997097,7.681055620470264,3.017193441762233
6.726138823,1.5427030730155913,7.474484806972291,3.137853698497774
6.731138789,1.4644818523125533,7.255341743756417,3.2019808652069432
6.736138122,1.3410251227696626,7.038199256343818,3.2115441252302594
6.741137755,1.1792004869216504,6.833957721378989,3.169779585090817
6.746137788,0.9866495264088787,6.649972910610975,3.0812051214038543
6.751137788,0.7713695064431302,6.49037680324219,2.95161485592853
6.756137388,0.5413054639081474,6.35655875033376,2.788044798072984
6.761136721,0.3039716409077953,6.247767639966545,2.598701233576417
6.766136721,0.06611923120296674,6.161791068703832,2.3928441430935754
6.771136721,-0.16653528843875348,6.095665109020549,2.180619319970343
6.776136687,-0.3895102353699597,6.046368116802107,1.9728349028508845
6.78113652,-0.5996798841669536,6.011454104262254,1.780680688747274
6.78613652,-0.7953133297919185,5.989585387246347,1.6153917511649798
6.791136553,-0.9760316784338547,5.9809303017438475,1.4878614242895702
6.796136219,-1.14268810583158,5.987399502829687,1.4082124643041214
6.801136219,-1.2971789597436856,6.01270337818722,1.3853389767526654
6.806136185,-1.4421972831385987,6.062223041806182,1.4264353074446448
6.811135518,-1.580942757127448,6.14269779183529,1.5365313311446556
6.816136184,-1.7168039966350965,6.261742361309152,1.718056227607672
6.821136884,-1.8530303029475972,6.4272172932718865,1.9704546806908139
6.826136884,-1.9924103539445264,6.646484879154405,2.289880208614792
6.83113755,-2.1369749068610133,6.925590898874043,2.668989734302116
6.83613755,-2.2877394436886527,7.268418537060814,3.096861280378197
6.84113845,-2.44450086338457,7.675865010065438,3.5590527514629446
6.84613935,-2.6056998825256747,8.145093326935106,4.037814341969918
6.851139316,-2.768357828460049,8.668910946056247,4.5124605841433505
6.856139949,-2.9280931041437586,9.23532367606442,4.95990088174132
6.861140849,-3.0792189033611397,9.827306961468127,5.355319941959556
6.866141782,-3.2149199079876314,10.422827848850643,5.67299212120758
6.871142048,-3.327501868308079,10.995139796753275,5.887206605753704
6.876142714,-3.4087043262130527,11.513359566795883,5.973273828199297
6.881142714,-3.450063464893482,11.943321313861539,5.908577856925701
6.886143347,-3.443309324085263,12.24868834528336,5.6736349646857756
6.891143747,-3.3807795516388817,12.39228854751873,5.253115438172218
6.896143747,-3.255830581354824,12.33762590224512,4.6367841489754165
6.90114378,-3.063226705312054,12.05050854042299,3.820315635999715
6.90614418,-2.7994879794023957,11.500724083552855,2.8059415620052794
6.911144846,-2.4631792620228636,10.663686198576608,1.6028924504541078
6.916144846,-2.0551249036224597,9.521972848501022,0.22760155919560557
6.921144846,-1.5785366092266184,8.066677026169334,-1.296353500398973
6.926144846,-1.0390456777012056,6.298495028135064,-2.9385864309467187
6.931144979,-0.44463503179360414,4.2284855948932085,-4.662519554927141
6.936144979,0.1945289878439478,1.878445352556887,-6.426275478878574
6.941144979,0.8663603835046227,-0.7191384286015424,-8.183823692180836
6.946145345,1.5572034920652227,-3.521578274800711,-9.886350520989222
6.951145678,2.252255530768848,-6.476920106555769,-11.483809247045942
6.956145678,2.9360441921487443,-9.525298301225936,-12.926596740626934
6.961146311,3.592939711427839,-12.600668940068568,-14.167294278745205
6.966146277,4.207678730669033,-15.632857685640255,-15.162403944703403
6.971146243,4.765876343353028,-18.54984105120857,-15.874008689401714
6.976146243,5.254503067516681,-21.280165943164633,-16.271284202671985
6.981146243,5.662305254625922,-23.75540331881519,-16.33179441805801
6.986146276,5.980150589650579,-25.912528338819847,-16.04250973414132
6.991146309,6.201284732132541,-27.69612183011588,-15.400497603376245
6.996146342,6.321490487527402,-29.060296086855477,-14.413248513147032
7.001146342,6.33914674158358,-29.970261475877443,-13.098615881807357
7.006146342,6.255190211015196,-30.403468077227387,-11.484365212396646
7.011146308,6.072988331586468,-30.35027751722682,-9.6073451368319
7.016146308,5.7981358726127725,-29.81414292882672,-7.512309917815958
7.021146974,5.438190824401762,-28.811298245766704,-5.250438809736025
7.026147007,5.002366596440704,-27.369980499934325,-2.8776117710027322
7.031147007,4.501197583270544,-25.529229276383738,-0.45251282663421355
7.036147007,3.9461938302944737,-23.337325021472797,1.9653585479715276
7.041146973,3.3494981055276702,-20.849941768349392,4.317681700269667
7.046146939,2.7235555027779257,-18.12809952784246,6.5492260306342365
7.051146905,2.0808022318655897,-15.236006728753742,8.609592418770305
7.056146905,1.4333770689314638,-12.238883456388475,10.454705424130387
7.061146938,0.7928566244523795,-9.200851883681947,12.047990465893376
7.066146971,0.17001450597539428,-6.182971724879291,13.361189942958175
7.071147004,-0.4253954021056989,-3.241486743155434,14.37479649008461
7.076147004,-0.9848302945921579,-0.4263345356726741,15.078107536817308
7.081147004,-1.5011217775154486,2.2200427940014977,15.4689300021421
7.08614697,-1.9686071728690486,4.663563871496512,15.552984684770866
7.09114697,-2.3832238529201697,6.879039425684533,15.343074857376005
7.09614697,-2.742561317068951,8.850371997518847,14.858091823313904
7.10114667,-3.0458660421324555,10.570436425447147,14.121931671854686
7.106146703,-3.2939950913831155,12.0406620316724,13.162392749912645
7.111146703,-3.4893159810940597,13.270344269098267,12.010113472138388
7.116146703,-3.635552275261543,14.275718997552264,10.697596330348832
7.121146703,-3.7375767046422776,15.078836804721663,9.258347894477305
7.126146703,-3.801156187326898,15.706278128833643,7.726148011096348
7.131146703,-3.832655870290805,16.187752591802973,6.134446235374386
7.136146669,-3.8387120918003257,16.554628055983834,4.515871544525106
7.141146669,-3.825886792008952,16.838436496755406,2.9018336971316065
7.146146069,-3.800318119143816,17.069404709387083,1.322191380103673
7.151146102,-3.7673835371867446,17.27505790497163,-0.1950371542281689
7.156146102,-3.731392451062554,17.478943145391312,-1.6239419518023315
7.161146102,-3.695325128738259,17.699517138023403,-2.9409836262322577
7.166146068,-3.660633492516351,17.94923906560653,-4.1252598246466885
7.171146068,-3.6271172087473533,18.233903845835233,-5.158779140993144
7.176146068,-3.5928855103629216,18.552244531691414,-6.026739299845499
7.181146101,-3.554411466430654,18.89582456306686,-6.717800601617539
7.186146101,-3.506681128301205,19.24923141217595,-7.224340789049608
7.191146101,-3.4434353223710463,19.590573048779206,-7.542673971301279
7.196146101,-3.3574970387022254,19.892267873695925,-7.673214229278906
7.201146101,-3.241172615772027,20.12210767783275,-7.620564129158869
7.206146101,-3.086710488841228,20.24456217415404,-7.393509606479775
7.211146067,-2.886797395400121,20.22228315081699,-7.00490548804067
7.216146067,-2.635068840578135,20.01775675373105,-6.471440160294999
7.221146067,-2.326608510977388,19.59504427830254,-5.813273370741862
7.2261461,-1.9584103382962856,18.92154557061787,-5.053547594240535
7.231146133,-1.5297771584255722,17.96971510964387,-4.217780473515065
7.236146133,-1.0426314415069609,16.71865940647246,-3.333153157300243
7.241146099,-0.5017163877946919,15.155545768742012,-2.42771645688271
7.246146065,0.0853302499054998,13.276756870405567,-1.5295430828711214
7.251146065,0.7080420313287589,11.088732915948086,-0.6658591572547609
7.256146065,1.353335549542021,8.608453309246483,0.13780896460402514
7.261146098,2.0058671181088368,5.863522322031719,0.8584362677948503
7.266146098,2.6485259668619796,2.8918379290973024,1.4762151201524978
7.271146098,3.26304779878182,-0.25916068303019885,1.975156423532243
7.276146098,3.830725196403392,-3.5336539065327193,2.3435525784871163
7.281146098,4.333184789154995,-6.868979665071359,2.5742857874398424
7.286146098,4.753195745386745,-10.197499422192454,2.6649721858645874
7.291146064,5.075470434993017,-13.448726180115129,2.6179389802429736
7.296146664,5.287416356493305,-16.551633449941036,2.4400379756158737
7.301146664,5.37979888283729,-19.437052279475335,2.1423045702701247
7.306146697,5.3472771888852515,-22.040055607693358,1.7394765714702856
7.311146697,5.188780888255876,-24.30222634088431,1.2493921311969298
7.316146697,4.907702286690518,-26.173708200468393,0.6922906711985259
7.321146663,4.5118884366973555,-27.614946769894633,0.09004462769884466
7.326146629,4.0134278432332735,-28.59804199361699,-0.5346471798283665
7.331146595,3.4282380267635073,-29.107651896335597,-1.1590721563679824
7.336146595,2.775471376001924,-29.141409311052183,-1.7612901696747394
7.341146628,2.0767669759869065,-28.709837450202844,-2.320862843916332
7.346146661,1.355384633128216,-27.835774625152606,-2.8194986957589934
7.351146694,0.6352635739859375,-26.553341772202074,-3.2415915993474087
7.356146727,-0.059948074140262736,-24.90650732703808,-3.5746357798439825
7.361146727,-0.7078460222269256,-22.947321326175132,-3.8095068989327068
7.366146693,-1.2881595415789866,-20.73390363662102,-3.9406054162678164
7.371146659,-1.7835370942713529,-18.328279476589685,-3.965864881696069
7.376146659,-2.180192989450883,-15.794158743840477,-3.8866337474495447
7.381146659,-2.4683879581143233,-13.194754231479273,-3.707444358327485
7.386146692,-2.6427254022653104,-10.590727926780808,-3.435686738684233
7.391146692,-2.7022545085170537,-8.03834479012181,-3.0812075044082365
7.396146692,-2.650380906856673,-5.587900384734534,-2.655855639868213
7.401146658,-2.494594617110251,-3.2824732693576353,-2.1729970357446073
7.406146624,-2.24603322751896,-1.157036033678926,-1.6470187005586208
7.41114659,-1.918905234168591,0.762058871696614,-1.0928416126936322
7.41614659,-1.5298039635021883,2.457219926578519,-0.5254584881072619
7.421146623,-1.096946318476274,3.919401975973147,0.04049045834034516
7.426146656,-0.6393726391367708,5.147569261604571,0.5910941377090538
7.431146689,-0.17614424850960247,6.147881658982345,1.1134934602235378
7.436146689,0.27442615169128426,6.9326596428762945,1.596147613567034
7.441146689,0.6954790054941998,7.519190358565085,2.0290438296431037
