Time (s),Acceleration x (m/s^2),Acceleration y (m/s^2),Acceleration z (m/s^2)
9.003785695,2.1929980098271575,-0.3759777558344137,0.4671394030637996
9.008562205,1.9346775042506121,2.1406163948541375,0.9605906604119374
9.01332533,1.6516638506819343,4.653264108652234,1.448654568105964
9.018115122,1.3422927139349554,7.136095607145904,1.9264911414572108
9.022891632,1.0056859671664995,9.563727146455319,2.3894639124466086
9.02765481,0.6418649370390931,11.91166913235405,2.833212426158032
9.032444601,0.251839930894686,14.156706135867921,3.2537186361106536
9.03722106,-0.16232788551369437,16.27724015149744,3.647365969744425
9.041984237,-0.5974951909473979,18.253589805734368,4.010989973058656
9.046774028,-1.0494377031031104,20.0682398790595,4.3419195649453775
9.051550487,-1.5128847583421725,21.70603735310304,4.638008070678707
9.056313664,-1.981587171197767,23.154332136044733,4.8976533817167445
9.061103455,-2.448417316926708,24.403062563516645,5.119806812556298
9.065879966,-2.905499516819314,25.444787632553325,5.303970495268934
9.070643091,-3.344368061244159,26.27466960935731,5.450183462074583
9.075432882,-3.7561495874096305,26.890412062751732,5.5589968989255345
9.080209393,-4.1317660163612295,27.292159436830023,5.6314393814180255
9.08497257,-4.462153807674399,27.48236494720599,5.668973197158445
9.089762362,-4.738494878572201,27.465633865554118,5.673443091256058
9.09453882,-4.952454152870102,27.248549182790466,5.647018934595242
9.099301997,-5.09641837905019,26.839486272601267,5.592133914129747
9.104091789,-5.163730620652021,26.24842258344744,5.511419893997909
9.108868247,-5.148914701019076,25.486747632272348,5.407641607450236
9.113631424,-5.047883888458662,24.567077707066733,5.283631318711506
9.118421216,-4.85812823949446,23.503078746384126,5.142225542605061
9.123197726,-4.578875278290923,22.309299884326663,4.986205326724283
9.127960851,-4.2112190797014435,21.001019161641374,4.818241483117552
9.132750643,-3.758213339228011,19.59410194153457,4.640846000376081
9.137527153,-3.2249246505535374,18.104871667762968,4.4563306703880405
9.14229033,-2.6184429630947483,16.549991795881066,4.266773727135184
9.147080122,-1.9478470471645521,14.94635704553294,4.07399502126286
9.15185658,-1.2241237367228557,13.310991586545939,3.879539951151339
9.156619757,-0.4600407295061241,11.660951402334792,3.6846720513063915
9.161409549,0.33002621987039266,10.013227881233947,3.490373819876959
9.166186007,1.1303097981233303,8.384649672518576,3.2973550702798837
9.170949185,1.9239083238611656,6.7917800055548,3.10606783842802
9.175738976,2.693079565156454,5.250806999971401,2.916726684797916
9.180515435,3.4195660883515098,3.7774249802138224,2.72933311315475
9.185278612,4.0849460698115605,2.386705432317417,2.5437027942543935
9.190068403,4.671002618658238,1.092956980763613,2.35949433501973
9.194844914,5.160103902669279,-0.09042541047547703,2.176238461754209
9.199608091,5.535585778833569,-1.1511209286304944,1.9933666685935543
9.20439783,5.782128232110267,-2.078051109167866,1.8102385931837441
9.209174341,5.886116739086213,-2.8615528617370143,1.626167596922335
9.213937518,5.835979710121978,-3.493552594591807,1.440444230533062
9.21872731,5.62249343443512,-3.967736924417621,1.2523574481951576
9.223503768,5.239046468433631,-4.279714782992803,1.0612135906891453
9.228266945,4.68185618035672,-4.427165208644918,0.8663532860977496
9.233056737,3.950131199882306,-4.4099647902037695,0.6671665100342934
9.237833195,3.046174808575049,-4.230288663132685,0.46310610560835264
9.242596372,1.9754258077804003,-3.8926791775608574,0.2537001008405752
9.247386164,0.7464350499360255,-3.4040768808865334,0.0385632060418504
9.252162622,-0.6292224615316855,-2.7738092746451204,-0.18259205493860317
9.256925799,-2.1370982827673726,-2.013533885742984,-0.40994404805415763
9.261715591,-3.760080768332521,-1.137133489007858,-0.6435500203966052
9.266492101,-5.478659977555076,-0.16056277286802487,-0.8833329629899155
9.271255278,-7.271240923134295,0.8983527170944489,-1.1290672376612794
9.27604507,-9.114497557149347,2.0201629707325575,-1.3803632948110158
9.280821528,-10.98375889701913,3.184081375788352,-1.6366522498512828
9.285584705,-12.853418063601726,4.368308840207165,-1.8971714214012756
9.290374497,-14.697354744575392,5.5503878021801025,-2.1609521088284525
9.295150955,-16.489361674221293,6.707578799650023,-2.426810899890403
9.299914132,-18.203566099303437,7.817251530359719,-2.6933456795773636
9.304703924,-19.81483785250558,8.857281814922123,-2.9589372991888294
9.309480382,-21.299176548172447,9.806445595346904,-3.221757598880852
9.31424356,-22.634071501244442,10.644801088921247,-3.4797841819382995
9.319033351,-23.798829182673177,11.354050502317996,-3.730822026550075
9.323809862,-24.774864286763748,11.917873307759015,-3.9725317033777654
9.328572987,-25.5459517209479,12.322223978075568,-4.202463665586816
9.333362778,-26.098437968615983,12.555588220730723,-4.418097811736165
9.338139289,-26.421411273088488,12.60919305744062,-4.616887295185312
9.342902466,-26.506830924714443,12.477167461462514,-4.7963053612441024
9.347692257,-26.34961660103181,12.15665158991814,-4.953893843379469
9.352468716,-25.947699207980197,11.64785385928489,-5.087311871350438
9.357231893,-25.302034983532554,10.95405616320149,-5.19438336313025
9.362021685,-24.416584742652223,10.08156840369383,-5.273141984219211
9.366798143,-23.298260078460025,9.039634203388095,-5.321872427609145
9.37156132,-21.956838133540497,7.840290209981336,-5.33914705516604
9.376351112,-20.40484627859735,6.498181829189651,-5.323857123257941
9.38112757,-18.657417743948695,5.03033856371567,-5.275237989157666
9.385890747,-16.732118993580897,3.4559124224182467,-5.1928878685613515
9.390680539,-14.648749450902608,1.7958831167606826,-5.076779897379805
9.395457049,-12.42911410915195,0.07273399662312183,-4.927267443992786
9.400220226,-10.09676960849836,-1.6898970902353438,-4.745082811719788
9.405009966,-7.676744549477774,-3.467587586163153,-4.53132964814766
9.409786476,-5.195235143997445,-5.2355159607706945,-4.287469521216889
9.414549653,-2.679277777902102,-6.9688583979766605,-4.015303221375583
9.419339445,-0.15640066192467045,-8.643191099774489,-3.7169474024993803
9.424115903,2.3457425355608805,-10.234892511400158,-3.394807183863337
9.42887908,4.799753367293671,-11.721539394772183,-3.0515453026894828
9.433668872,7.178879000349388,-13.082290305222651,-2.6900483328037286
9.43844533,9.457406793602331,-14.29824969014497,-2.3133903801023137
9.443208507,11.611056612213861,-15.352805563844068,-1.9247945597031928
9.447998299,13.617363608256934,-16.23193356664929,-1.527592500895729
9.45277481,15.456043546378698,-16.92446024676319,-1.1251821637774493
9.457537935,17.10933235421283,-17.422278677008464,-0.7209844013243043
9.462327726,18.562291498333384,-17.720510093643117,-0.3183989033492871
9.467104237,19.803071069126307,-17.817606149539888,0.07923970651797162
9.471867414,20.82312310053739,-17.715387602788596,0.4687048650180999
9.476657205,21.617358617332414,-17.419016787617633,0.8469195178471819
9.481433664,22.184243135934405,-16.936903007442336,1.2109954807748857
9.486196841,22.525826776080024,-16.280542007937477,1.5582701665356449
9.490986632,22.64770671252996,-15.464292843386232,1.8863400612496357
9.495763091,22.558921377534112,-14.505097580646645,2.1930902782045436
9.500526268,22.271777575096504,-13.422151175765633,2.4767195044495662
9.50531606,21.801613398606182,-12.236530309371126,2.735759663796464
9.51009257,21.1665014403214,-10.970790869710124,2.9690896381257668
9.514855695,20.386898159657107,-9.648544124489298,3.1759424507025815
9.519645487,19.485246400329885,-8.294021491279109,3.355905455939811
9.524421997,18.485538913082838,-6.931637294373017,3.5089132938720207
9.529185174,17.412851373563214,-5.585558083035677,3.635233617422227
9.533974966,16.2928538166614,-4.279286083073966,3.7354458533608197
9.538751424,15.151309666423323,-3.03526326494138,3.8104134988761014
9.543527935,14.01357164759468,-1.8745014423584498,3.861250676527108
9.548304393,12.904083853318255,-0.8162428555247808,3.8892838588343612
9.553080851,11.845899148992096,0.12234510639911358,3.8960098204718188
9.557844028,10.860220926551595,0.9264380258747993,3.8830509840783747
9.56263382,9.965977963335575,1.5837829141973112,3.852109407770131
9.567410278,9.17944074767809,2.0848849353580006,3.8049207282433404
9.572173455,8.51388708359537,2.4231507314678233,3.7432094204730877
9.576963247,7.979324071964332,2.5949870833354156,3.6686467496931097
9.581739757,7.582272688285419,2.599854042021114,3.5828127570345227
9.586502935,7.325620145137199,2.4402720741088526,3.4871635258967584
9.591292726,7.208544055196801,2.1217831732806562,3.3830048185666617
9.596069185,7.226511121193817,1.652866302174009,3.2714729528244653
9.600832362,7.371351699784216,1.0448079428183514,3.153523508170933
9.605622153,7.631410142747834,0.31152895640509853,3.029928114708947
9.610398612,7.991769333094474,-0.5306306084302062,2.901279194762537
9.615161789,8.434546326668638,-1.4631666578241262,2.7680021179681473
9.61995158,8.939254505282587,-2.4657035547679698,2.630373824617493
9.624728039,9.48322617227154,-3.5163208722904638,2.488546605890186
9.629491216,10.042088105974548,-4.591910744991835,2.3425754413103497
9.634281007,10.590281266853255,-5.668561601425459,2.1924471166527786
9.639057518,11.101614671530074,-6.72196348083452,2.0381093010663456
9.643820643,11.549842441519205,-7.727829552291771,1.8794978543762297
9.648610435,11.90925223171881,-8.662327872835496,1.7165608511783683
9.653386945,12.155252654080575,-9.502516858741183,1.5492781233607884
9.658150122,12.264946940293907,-10.226777420010803,1.3776755083878716
9.662939914,12.217679947851435,-10.815234245378148,1.2018334144380667
9.667716372,11.995545739144367,-11.250158350755875,1.0218897370891884
9.672479549,11.583843403386894,-11.516342750455795,0.8380375459655865
9.677269341,10.971469598578993,-11.601443013116679,0.6505182729165607
9.682045799,10.151237497827774,-11.496274557411393,0.4596113648546971
9.686808976,9.120113429456651,-11.195058857268213,0.26562152732650457
9.691598768,7.879364466902796,-10.695611288684464,0.06886480962570764
9.696375226,6.4346124864294385,-9.999464177040801,-0.1303451020519474
9.701138403,4.7957926811789475,-9.111919697380136,-0.3317089039015718
9.705928195,2.977017105302691,-8.04202862882508,-0.5349504437707201
9.710704705,0.9963464330297922,-6.802492549693289,-0.7398206844244231
9.715467882,-1.124524331399864,-5.409488859979338,-0.9460954803451102
9.720257622,-3.360658062120497,-3.88241999842368,-1.153566202053502
9.725034132,-5.684335385683693,-2.2435903203109273,-1.3620229098653622
9.72979731,-8.065570248675,-0.5178162251009749,-1.5712306243668037
9.734587101,-10.472667995199123,1.2680228420781223,-1.7809001058199856
9.73936356,-12.872812107071098,3.0854830528352992,-1.9906552583615702
9.744126737,-15.23266561288577,4.905093510067372,-2.1999996883149717
9.748916528,-17.51897346892472,6.696920011596471,-2.4082850346217164
9.753692987,-19.699152875981333,8.43114227021821,-2.6146835061384834
9.758456164,-21.741859461548376,10.078631228675828,-2.818166705824963
9.763245955,-23.617518494015837,11.611513164257019,-3.01749239235652
9.768022466,-25.29881178382882,13.00370775635132,-3.211200378211716
9.772785591,-26.761112622474656,14.231428179501755,-3.3976182943450772
9.777575382,-27.98286292683426,15.273632553323752,-3.574877455024606
9.782351893,-28.945888578502032,16.112417671739394,-3.7409385463105735
9.78711507,-29.635650666198725,16.73334776044009,-3.893626381214389
9.791904862,-30.04143187668598,17.12571296066038,-4.030672557710055
9.79668132,-30.156458591663046,17.282714186147015,-4.149764544184355
9.801444497,-29.97796031460415,17.20157283919096,-4.248599504523317
9.806234289,-29.50716887025763,16.883565523435966,-4.324941058773712
9.811010747,-28.749260410442908,16.333985315233665,-4.376677143834128
9.815773924,-27.713243663758952,15.562032342719567,-4.4018771701471335
9.820563716,-26.411798130916555,14.580637388005474,-4.398846742182146
9.825340174,-24.861066087594544,13.406223004258676,-4.3661783124789215
9.830103351,-23.080402333756027,12.058407263902927,-4.302796276973254
9.834893143,-21.09208563580971,10.559655763439554,-4.207995205237693
9.839669653,-18.920995761890605,8.93488793562258,-4.081470138126614
9.844432778,-16.59425993510475,7.21104408557918,-3.923338169115834
9.84922257,-14.14087245763393,5.416619893003554,-3.7341508354191997
9.85399908,-11.591291225885717,3.581175422606145,-3.514897155746492
9.858762257,-8.977014894485068,1.734825970870609,-3.2669974376147293
9.863552049,-6.330144577193964,-0.09227764353397683,-2.992288217812342
9.868328507,-3.6829342091373576,-1.8704714625311405,-2.69299888410523
9.873091685,-1.0673340417433776,-3.5710952923548787,-2.3717206537111046
9.877881476,1.4854678038107958,-5.166995725479519,-2.0313686585349595
9.882657935,3.945500250658467,-6.63300666806095,-1.6751379138695963
9.887421112,6.284454564277504,-7.9463986214073845,-1.306453938525581
9.892210903,8.476113338080111,-9.087287935718797,-0.928918780581205
9.896987362,10.496755925487719,-10.038997377199783,-0.5462532311617565
9.901750539,12.325532665186127,-10.788359681211242,-0.16223611996432535
9.90654033,13.944800020293133,-11.325956369423686,0.21935821925252025
9.911316841,15.340408766647153,-11.64628504899738,0.594823014036061
9.916079966,16.50193767222351,-11.747849724432939,0.9605812329053985
9.920869757,17.422865745175564,-11.633170343893603,1.313245504402416
9.925646268,18.100677106791675,-11.308709852980837,1.6496745509683288
9.930409445,18.53689385552424,-10.78471940157272,1.9670250539075085
9.935199237,18.73703388526372,-10.075004962128078,2.2627979345118128
9.939975695,18.7104924423255,-9.19662130554716,2.534878071979006
9.944738872,18.470348183694895,-8.16950178592679,2.7815665441319943
9.949528664,18.033096543627583,-7.016034426005626,3.001604583104517
9.954305122,17.418315191233887,-5.760596170777995,3.1941885616235717
9.959068299,16.648268118412048,-4.4290578312441085,3.3589754601145776
9.963858091,15.747456337448325,-3.048272237743322,3.496078424620533
9.968634601,14.742124274999167,-1.6455575831294433,3.6060522173890264
9.973397726,13.659731763051383,-0.24818698749463897,3.68986857930589
9.978187518,12.528402093278912,1.1171059227711577,3.7488817602412436
9.982964028,11.376356941864685,2.4245970409110518,3.7847847327616315
9.987727205,10.2313490932189,3.650010493902591,3.7995568897507663
9.992516945,9.120103807813388,4.770920526761983,3.7954043285079764
9.997293455,8.067779428385183,5.767112281115258,3.774694122591196
10.00205663,7.097457442786411,6.620898227351825,3.7398842561626178
10.00684642,6.229671742709874,7.317387834019158,3.6934511264821825
10.01162288,5.481986228542739,7.844708703577686,3.637816696111396
10.01638606,4.868629191505679,8.194177919973718,3.5752774894170476
10.02117585,4.400192040785305,8.360422789395699,3.5079376725524223
10.02595231,4.083398934057093,8.34145054728069,3.4376484259704707
10.03071549,3.920952722566656,8.138666973957843,3.365955706113699
10.03550528,3.9114613503059017,7.756844219745968,3.294058291146608
10.04028179,4.049447467293317,7.2040384949064435,3.22277770910242
10.04504497,4.325442545497904,6.491458638193268,3.152541253283579
10.0498347,4.72616523570812,5.633286950180391,3.083378803749258
10.05461122,5.234782087832676,4.646454075820985,3.014933612075777
10.05937439,5.831247094397849,3.550370154919712,2.9464866012166486
10.06416419,6.492714833671262,2.366614935860502,2.8769931278031606
10.06894064,7.194020317348217,1.1185900695635547,2.805130600637082
10.07370382,7.908217026483945,-0.1688626341085007,2.729354892416468
10.07849361,8.607163094123765,-1.4698726023805309,2.6479631553576284
10.08327007,9.262144215888972,-2.757976533795165,2.5591604722601837
10.08803325,9.844520693764238,-4.006573417105926,2.461127744539076
10.09282304,10.326385089566411,-5.1893922498738805,2.35208832741363
10.0975995,10.681216312614598,-6.280965566292305,2.230371147960704
10.10236267,10.884515600978876,-7.257101322472608,2.0944683524582532
10.10715247,10.91440977901945,-8.09534519134576,1.9430858902579549
10.11192898,10.75220739772059,-8.775424914694522,1.7751858224525043
10.11669215,10.38289391869804,-9.279668077982867,1.5900195258828949
10.12148189,9.795553025701338,-9.593384547128368,1.3871513387881846
10.1262584,8.983702468668495,-9.70520486479687,1.166472562991611
10.13102158,7.945534578338917,-9.60736617377048,0.9282061007418723
10.13581137,6.684053730117159,-9.295937741909167,0.6729023638856023
10.14058783,5.207105558755451,-8.770978930349688,0.40142744738583847
10.14535101,3.5272955737663505,-8.036623489510221,0.1149448968957878
10.1501408,1.661797904561714,-7.101085388616143,-0.18510730500492972
10.15491726,-0.3679419152468417,-5.9765829703494635,-0.49704269647264443
10.15968044,-2.536603083042311,-4.679180044841181,-0.8189533203157247
10.16447023,-4.81547460955501,-3.228544556465049,-1.1487359265913233
10.16924669,-7.173016790652945,-1.6476276188254868,-1.484115924058371
10.17400986,-9.575484401189247,0.03773205665029866,-1.8226681529497206
10.17879965,-11.987595402016492,1.7992711149384044,-2.161834214848373
10.18357616,-14.373228008186743,3.606822621835226,-2.4989367813083554
10.18833934,-16.696128604982,5.428884179476238,-2.831191927369674
10.19312908,-18.92061319547273,7.2332205985810845,-3.1557210255075603
10.19790559,-21.012245798016174,8.987487603022723,-3.4695640233365554
10.20266877,-22.938478443230554,10.659862437476985,-3.7696959646868353
10.20745856,-24.669239079587584,12.219667062411066,-4.053048377853606
10.21223502,-26.177455711707996,13.637969835958435,-4.316536672249955
10.2169982,-27.439507399930324,14.888152193208494,-4.557094036437333
10.22178799,-28.435595270750234,15.946427847823951,-4.77171163778476
10.22656445,-29.150029326291886,16.792303456939752,-4.957484308519094
10.23132762,-29.571429470983347,17.40897146400964,-5.1116604415379525
10.23611741,-29.692841653787408,17.78362786529034,-5.231694520667111
10.24089392,-29.511772214011977,17.90770979411207,-5.315300535768254
10.24565705,-29.03014529815464,17.777049938731906,-5.360504448972203
10.25044684,-28.254189508476582,17.391946786071806,-5.365693882690796
10.25522335,-27.194260736902184,16.757151436642847,-5.329663304746541
10.25998653,-25.86460848242169,15.881773229261356,-5.251653182783832
10.26477632,-24.283092946163244,14.77910764967501,-5.131381834183
10.26955278,-22.470859957117085,13.466391004799732,-4.969068966222391
10.27431596,-20.45198039623624,11.964487167598021,-4.765450154053859
10.27910575,-18.253060323270795,10.297512382332823,-4.521781732314773
10.28388221,-15.902827514078908,8.492404707651136,-4.239835789613454
10.28864538,-13.431699619646107,6.578445201198567,-3.9218851722501573
10.29343517,-10.87133869180084,4.586738441817831,-3.5706786397318204
10.29821163,-8.254196416353132,2.5496604614946308,-3.1894065723980134
10.30297481,-5.613054084730827,0.5002826261486154,-2.7816578978743514
10.3077646,-2.980561149607658,-1.528219539999145,-2.3513691560569416
10.31254111,-0.3887761720556238,-3.503163156347166,-1.90276684039022
10.31730424,2.131285905409734,-5.392950582763686,-1.440304320448641
10.32209403,4.550095925973475,-7.16764763128811,-0.9685947573213024
10.32687054,6.840037428721566,-8.799536939079275,-0.49234146690763947
10.33163372,8.97581301137274,-10.263635878039958,-0.01626717700298472
10.33642351,10.934824192041436,-11.53816834168786,0.4549564146805305
10.34119997,12.697518171183296,-12.604979894707679,0.9167774089155107
10.34596314,14.247694377380457,-13.449886154653427,1.3648294240622956
10.35075294,15.572763410781407,-14.062944976347081,1.794992851953262
10.35552939,16.663951081745278,-14.438644115270534,2.2034502419157835
10.36029257,17.51644075204651,-14.575997633229154,2.5867345694289385
10.36508236,18.12944814950625,-14.47854642291445,2.941769496610117
10.36985882,18.506224208399527,-14.15426086936556,3.2659011407006617
10.374622,18.653983173747907,-13.615346771541313,3.5569211680038566
10.37941179,18.583755039836547,-12.877959039254456,3.8130811784506937
