Time (s),X (m/s^2),Y (m/s^2),Z (m/s^2)
9.001931,0.23486685358421114,-0.18728346567703288,0.3509325715065664
9.011859,0.09658761870712061,-0.16574588244801525,0.3153723266704662
9.021787,-0.03892958480814642,-0.14083032723973177,0.2812083858990099
9.031715,-0.17006021318608341,-0.11305608525616231,0.24906039830761903
9.041643,-0.29527579451261127,-0.0829514363756023,0.2194974098889641
9.051571,-0.41316635667629836,-0.051040762264819274,0.1930258539319569
9.061499,-0.5224607150067423,-0.01783302123112794,0.17007885557044902
9.071427,-0.622044338728442,0.01618809696710317,0.15100709154985534
9.081355,-0.7109745585171982,0.05057210453459109,0.1360713954634579
9.091283,-0.7884929120930262,0.08490758826590009,0.12543725005645703
9.101211,-0.8540344530320777,0.11882595791690818,0.11917126457661933
9.111139,-0.9072338746238632,0.1520030943426008,0.11723969586384642
9.121067,-0.9479283294743764,0.18415900816784894,0.11950903578214599
9.130995,-0.9761568584065214,0.2150557028819831,0.12574865365990406
9.140923,-0.992156380122738,0.2444935142257566,0.1356354486361652
9.150851,-0.9963542379270801,0.27230626969105287,0.1487604311806045
9.160779,-0.9893573531209351,0.29835567524709444,0.16463711574233567
9.170707,-0.9719380952561086,0.3225253851006664,0.18271156977779276
9.180635,-0.94501704346564,0.3447152365090452,0.2023739295003045
9.190563,-0.9096428786324201,0.36483612909662944,0.22297115810133425
9.200491,-0.8669697166865897,0.38280599449945385,0.24382078727791173
9.210419,-0.8182322753774496,0.39854723844460616,0.2642253518709741
9.220347,-0.7647193631248161,0.4119859454782361,0.28348720729293
9.230275,-0.7077462829717155,0.4230530187117161,0.30092341374101145
9.240203,-0.6486268438588214,0.4316872874192423,0.3158803769526939
9.250131,-0.5886457509725663,0.43784046182180697,0.32774794603694446
9.260059,-0.5290321967447508,0.4414836567291005,0.3359726807704756
9.269987,-0.47093548830059684,0.44261505305045973,0.34007001616320354
9.279915,-0.4154035196143947,0.44126812735886817,0.3396350784031384
9.289843,-0.3633648196475576,0.4375197665043938,0.33435194817114094
9.299771,-0.31561477702407625,0.43149751212239956,0.3240012195677922
9.309699,-0.2728064619559853,0.4233851629257303,0.3084657521698838
9.319627,-0.23544625058966562,0.41342600839787963,0.2877345487199505
9.329555,-0.20389422374357297,0.4019230753994423,0.26190470972601343
9.339483,-0.17836907993455803,0.3892359320828314,0.23118142341712594
9.349411,-0.15895708831922645,0.37577379880910416,0.19587594938946712
9.359339,-0.14562442348036236,0.36198494735417075,0.15640155004164027
9.369267,-0.1382320803795313,0.3483426114614529,0.11326732179162398
9.379195,-0.1365524720771009,0.3353278709257009,0.06706988851035427
9.389123,-0.14028677097438066,0.32341019831857304,0.018482952377016745
9.399051,-0.1490820699738079,0.3130265624725199,-0.031755243825219555
9.408979,-0.16254751408027862,0.3045601524206592,-0.08285640825367613
9.418907,-0.18026868215713307,0.2983199015802336,-0.13399841875001162
9.428835,-0.20181967341030305,0.2945220346769193,-0.18434295245461352
9.438763,-0.22677256049867495,0.2932748122698311,-0.23305413269291508
9.448691,-0.2547040963552654,0.29456750083647004,-0.2793177367079963
9.458619,-0.28519978658550815,0.29826435445420946,-0.32236045535910784
9.468547,-0.3178556391928595,0.3041040782177864,-0.36146865175230253
9.478475,-0.3522780523560377,0.31170488996818935,-0.39600603513712285
9.488403,-0.3880823814613376,0.3205749490058437,-0.42542965929328674
9.498331,-0.4248907357576425,0.3301276174333262,-0.4493036799286569
9.508259,-0.4623295037907769,0.33970078767449935,-0.46731036708551055
9.518187,-0.5000270145433005,0.34857935690650527,-0.4792579634281156
9.528115,-0.5376116287449961,0.35601984727053393,-0.48508509929791566
9.538043,-0.5747104376259751,0.3612761417603139,-0.48486161043460785
9.547971,-0.6109486332826027,0.36362531250677366,-0.47878574555382664
9.557899,-0.6459495143228992,0.3623925525270123,-0.4671778910847406
9.567827,-0.6793350161758804,0.35697428495727673,-0.4504710707845426
9.577755,-0.7107266205862349,0.3468586207666431,-0.4291985886579807
9.587681917,-0.7397465048542647,0.33164247181463624,-0.4039792662813152
9.597609917,-0.7660188254327857,0.31104480234877074,-0.3755007779341189
9.607537917,-0.7891710741029107,0.2849157145009435,-0.3445016140591082
9.617465917,-0.8088354841220069,0.25324130016999613,-0.31175221487232424
9.627393917,-0.824650492987161,0.2161444324819383,-0.2780358187281155
9.637321917,-0.8362622900817664,0.17388188713258446,-0.24412956436724942
9.647249917,-0.8433264978970626,0.12683834609456873,-0.21078636596641365
9.657177917,-0.8455100596191061,0.075517915600961,-0.17871803800787922
9.667105917,-0.8424934329410262,0.020533771863202478,-0.14858008361774583
9.677033917,-0.8339732146153731,-0.03740356346731699,-0.12095848424609176
9.686961917,-0.819665335901451,-0.09749899345391612,-0.09635875149063777
9.696889917,-0.799308969639995,-0.15888653489481736,-0.07519742773645964
9.706817917,-0.7726712698260827,-0.2206439647640987,-0.05779614643187034
9.716745917,-0.7395530208284531,-0.2818085509203655,-0.04437827879072979
9.726673917,-0.6997952070365063,-0.34139398472598315,-0.03506810234564706
9.736601917,-0.6532864318531582,-0.3984085356562264,-0.02989233781999918
9.746529917,-0.5999710286428531,-0.4518742948873538,-0.028783826802398504
9.756457917,-0.5398576265066861,-0.5008472100481501,-0.031587073545352465
9.766385917,-0.47302786904662003,-0.5444374777390112,-0.03806535553965777
9.776313917,-0.39964494057704386,-0.581829780462726,-0.04790911976844654
9.786241917,-0.3199615349949427,-0.6123028349714962,-0.06074541836197969
9.796169917,-0.2343269061509734,-0.6352477429546657,-0.07614818631824205
9.806097917,-0.14319265649084714,-0.6501846736752119,-0.09364920948475576
9.816025917,-0.0471169409116591,-0.6567774363392473,-0.11274965812944573
9.825953917,0.05323322198276162,-0.6548455087010498,-0.13293206022499443
9.835881917,0.1570818256356522,-0.6443730862950487,-0.15367255845060948
9.845809917,0.2635462116578707,-0.6255147201215543,-0.17445324530761971
9.855737917,0.3716421049257298,-0.5985971331889809,-0.19477431704994747
9.865665917,0.4802915405965013,-0.5641168570641321,-0.21416574490130172
9.875593917,0.5883338269284184,-0.5227334183320628,-0.23219814188965232
9.885521917,0.6945396385699892,-0.47525794430813817,-0.2484925082140245
9.895449917,0.7976282777141434,-0.4226372545156915,-0.2627285634744656
9.905377917,0.8962880569649452,-0.3659337471878529,-0.27465141613016403
9.915305917,0.9891996295437196,-0.3063016429526818,-0.2840763791172821
9.925233917,1.0750619159273596,-0.24496036496768847,-0.290891815213108
9.935161917,1.152620070341034,-0.18316597972518492,-0.29505997708541726
9.945089917,1.220694730684778,-0.12218168111798748,-0.296615878136197
9.955017917,1.2782116353807722,-0.06324827948281059,-0.29566427986359195
9.964945917,1.3242305904771359,-0.007555578987197788,-0.2923749107588867
9.974873917,1.357972735447534,0.04378458228863743,-0.28697604677163807
9.984801917,1.3788450824458336,0.08976297097209991,-0.27974658732172514
9.994729917,1.3864613826700538,0.12949472226507244,-0.2710067591099586
10.00465792,1.3806584945328917,0.1622377598801088,-0.26110758658969446
10.01458592,1.361507582142522,0.18740746467766273,-0.25041929916393796
10.02451392,1.329319652567646,0.2045872344951267,-0.23931890649293955
10.03444192,1.2846451408166517,0.2135346375991703,-0.22817725518077234
10.04437092,1.2282674634346955,0.21418295605227952,-0.21734596499897776
10.05429892,1.1611906712166948,0.2066380550028716,-0.20714471410265736
10.06422692,1.0846215239264854,0.19117069316123708,-0.19784938808458297
10.07415492,0.999946476338389,0.16820458867522248,-0.18968161851354048
10.08408292,0.9087042062951592,0.13830074893992994,-0.18280020819430073
10.09401092,0.8125544387073123,0.10213874008463228,-0.17729487434901126
10.10393892,0.7132439290463086,0.06049569463982322,-0.1731826452792531
10.11386692,0.6125705622077634,0.01422392447436887,-0.17040713177209635
10.12379492,0.512346586608098,-0.035771980134790125,-0.16884077059801508
10.13372292,0.4143620261446724,-0.08855771843106361,-0.16829000826198665
10.14365092,0.3203492845666848,-0.14319073838414392,-0.16850325871136707
10.15357892,0.2319498738576062,-0.1987399098894148,-0.16918132810228573
10.16350692,0.15068406239831247,-0.2543028537277738,-0.16998985760391436
10.17343492,0.07792405788790605,-0.3090205046360546,-0.17057320698526104
10.18336292,0.01487112841793221,-0.36208863978645794,-0.17056911089735838
10.19329092,-0.0374631566672588,-0.4127662703070617,-0.1696234066181375
10.20321892,-0.07827159102272932,-0.46038096484940544,-0.16740416241573453
10.21314692,-0.10696209162119208,-0.5043313371021164,-0.16361461866756713
10.22307492,-0.12316485353894,-0.5440870691800658,-0.15800446828976886
10.23300292,-0.126736240293884,-0.5791869495636314,-0.15037912669218761
10.24293092,-0.11775973494337713,-0.6092354736390325,-0.14060675727659305
10.25285892,-0.09654421857014671,-0.6338985892496295,-0.12862291648658514
10.26278692,-0.06361976282016905,-0.6528991763010854,-0.11443276017184775
10.27271492,-0.019731042649342365,-0.6660128370542536,-0.09811081586535675
10.28264292,0.03417159225604376,-0.6730645468123265,-0.07979838493954305
10.29257092,0.09694340227646278,-0.6739266685207972,-0.05969870660709751
10.30249892,0.16725896109210145,-0.6685187547265284,-0.038070097437931674
10.31242692,0.24362839100881087,-0.6568094282284721,-0.015217368465884777
10.32235492,0.32441630185581205,-0.6388204384763123,0.008518100067803883
10.33228292,0.40786365750691805,-0.6146327430292501,0.0327691961535893
10.34221092,0.49211281740197604,-0.5843941924850662,0.05715437969448742
10.35213892,0.5752359665441197,-0.5483281473113696,0.08128901919476918
10.36206692,0.6552670343576916,-0.5067421702657848,0.10479635988661891
10.37199492,0.7302370023757817,-0.46003585147604825,0.12731776585594415
10.38192292,0.7982122251931142,-0.4087068492604779,0.14852192990336527
10.39185092,0.8573350751208785,-0.3533543602947775,0.16811279687329592
10.40177892,0.9058659237884483,-0.29467943631719323,0.18583599569392212
10.41170692,0.9422252481733747,-0.23348179425760165,0.201483624258466
10.42163492,0.9650345265003213,-0.170652977147689,0.21489728335308025
10.43156292,0.9731545726495845,-0.10716588759176068,0.2259693146243858
10.44149092,0.9657200240575353,-0.04406083213619343,0.23464226770694063
10.45141892,0.9421688153431536,0.01757169783911095,0.24090670692212188
10.46134692,0.9022656083349372,0.07661119773743191,0.24479756463396182
10.47127492,0.8461182906507235,0.1319298584634872,0.24638934206595836
10.48120292,0.7741867954229209,0.18241727016076903,0.2457905299038955
10.49113092,0.687283639693549,0.22700644503345307,0.24313765465129028
10.50105892,0.5865657369783928,0.26470036556413107,0.23858934479078914
10.51098692,0.47351721800747637,0.29459818276131583,0.23232075349465411
10.52091492,0.34992319803098576,0.3159201536829029,0.22451857878801482
10.53084392,0.2178346632842847,0.3280304183602552,0.21537680194931305
10.54077192,0.07952491697947617,0.33045676733611024,0.20509314270238793
10.55069992,-0.062561670747614,0.3229066359854127,0.1938661314167723
10.56062792,-0.2058675269532599,0.30527867690232285,0.18189264438063849
10.57055592,-0.34778491557912267,0.2776694044534417,0.16936574274042285
10.58048392,-0.4857223679454202,0.2403745720692518,0.1564726846010549
10.59040842,-0.6171724219533639,0.19388512621236234,0.14339301879260888
10.60033642,-0.7397783763538711,0.13887777275513016,0.13029669966341273
10.61026442,-0.8513976655159499,0.07620038334856136,0.11734218286794411
10.62019242,-0.9501594815010443,0.006852654374015434,0.10467448334766956
10.63012042,-1.0345144170086784,-0.06803739605648633,0.0924232105069731
10.64004842,-1.1032741721091348,-0.14724035171407654,0.08070064448345492
10.64997642,-1.1556397495232926,-0.2294548677929461,0.06959997200506374
10.65990442,-1.1912170384225687,-0.31333870688306886,0.05919384519252534
10.66983242,-1.2100192275353003,-0.39754029183580764,0.04953344866547717
10.67976042,-1.2124560603696757,-0.480729697665798,0.040648252738051206
10.68968842,-1.1993105111023459,-0.5616280253674366,0.03254659285862252
10.69961642,-1.1717039834857272,-0.6390341745636877,0.025217152742072615
10.70954442,-1.1310515877959926,-0.7118481564137095,0.018631350639269975
10.71947242,-1.0790094118257543,-0.7790902532124163,0.012746546960685837
10.72940042,-1.017415958932112,-0.8399155239669945,0.007509917925246637
10.73932842,-0.9482300734745067,-0.8936233653347109,0.002862782081057563
10.74925642,-0.873467710706962,-0.9396620569741141,-0.0012548701426585132
10.75918442,-0.7951398373703107,-0.977628441612491,-0.004899906340278814
10.76911242,-0.7151935790357439,-1.007263100892982,-0.008121893158325394
10.77904042,-0.6354584764621196,-1.0284415719335436,-0.010959470585508422
10.78896842,-0.557599399263675,-1.0411622902338062,-0.013437441012740782
10.79889642,-0.4830773168248226,-1.0455320323081707,-0.015564709943000252
10.80882442,-0.41311876477801146,-1.0417496665573283,-0.01733316996834062
10.81875242,-0.34869448513486395,-1.0300890122586428,-0.018717572819652088
10.82868042,-0.29050737135399113,-1.010881565990167,-0.01967638371605572
10.83860842,-0.23898952837374282,-0.9844997919929733,-0.020153558489059156
10.84853642,-0.19430797236832556,-0.9513415935855373,-0.020081131519524197
10.85846442,-0.15637825239660955,-0.9118164892797944,-0.01938245697618762
10.86839242,-0.12488508083490187,-0.8663339109864975,-0.017975911104327506
10.87832042,-0.0993089169361428,-0.8152939249144376,-0.015778841523968842
10.88824842,-0.07895736341755795,-0.7590805535780756,-0.012711541094999558
10.89817642,-0.06300021000906766,-0.6980577577617842,-0.008701026784140463
10.90810442,-0.05050698139562611,-0.6325680290332365,-0.003684415042898778
10.91803242,-0.040485902364990146,-0.5629334522310355,0.0023882955315429155
10.92796142,-0.03192325929907471,-0.48945902342132674,0.00955219214586894
10.93788942,-0.023822196345612272,-0.412437946895,0.01782627741901795
10.94781742,-0.015240026334946739,-0.33215857756686423,0.02721321053525642
10.95774542,-0.005323160553594054,-0.24891261717767896,0.037699940374653886
10.96767342,0.006661223509374823,-0.16300411247584065,0.04925914198724316
10.97760142,0.021297638121860085,-0.07475874389692069,0.06185130793200566
10.98752942,0.03899968946337184,0.015467158868189605,0.07542730192797903
10.99745742,0.05999318667206412,0.10727847229099574,0.08993115664196798
11.00738542,0.08430560317821917,0.20023460805106305,0.10530288956324967
11.01731342,0.11176237957095195,0.2938448839124293,0.12148111882818591
11.02724142,0.14199034984726253,0.38756642641230366,0.13840528294927337
11.03716942,0.17442832484609808,0.48080497576290787,0.15601730290277152
11.04709742,0.20834459392173765,0.572918811531474,0.17426256821244768
11.05702542,0.2428608272977991,0.6632258468478512,0.1930901746356762
11.06695342,0.2769815951493354,0.7510137629401108,0.21245238457897403
11.07688142,0.30962848196414344,0.8355528863712898,0.2323033213783236
11.08680942,0.3396775817077704,0.9161113576229842,0.2525969483034918
11.09673742,0.3659990230778651,0.9919720101914229,0.27328442595973906
11.10666542,0.38749710038682844,1.062450283196531,0.29431098639118464
11.11659342,0.4031495739525111,1.1269124353704778,0.31561250181230305
11.12652142,0.4120447522329892,1.1847933172783176,0.33711195231692465
11.13644942,0.41341507436409963,1.2356129890510719,0.3587160065839198
11.14637742,0.4066660711574715,1.2789915359513884,0.3803119258849668
11.15630542,0.39139978448468593,1.3146615249753009,0.40176499073189115
11.16623342,0.3674319559888681,1.3424776533976734,0.42291663373447946
11.17616142,0.3348025434805282,1.3624232568820773,0.443583438705943
11.18608942,0.2937793751531293,1.3746134647468076,0.46355713006342736
11.19601742,0.2448549953580539,1.3792949092925009,0.4826056259923645
11.20594542,0.18873697885648869,1.3768420121473235,0.5004751670714251
11.21587342,0.12633218407713828,1.3677499816765533,0.5168934700703469
11.22580142,0.05872557609301885,1.352624760062871,0.5315738098107908
11.23573042,-0.012845623074080261,1.3321702541499398,0.5442199090902495
11.24565842,-0.08702160573267351,1.3071732661066238,0.5545315110008664
11.25558642,-0.16235256311334959,1.2784866016758953,0.5622105030010999
11.26551442,-0.23733325700570534,1.2470108674300484,0.5669674475622754
11.27544242,-0.3104386712796142,1.213675468391348,0.5685283549376136
11.28537042,-0.38015988357817,1.1794192832493973,0.5666415218089893
11.29529842,-0.44503936069519995,1.1451714325003635,0.5610842608616751
11.30522642,-0.5037049487304321,1.1118324774256751,0.5516693553195955
11.31515442,-0.5549018949347353,1.0802563109337844,0.5382510808934001
11.32508242,-0.597522302378281,1.0512329404873435,0.5207306437087775
11.33501042,-0.6306314840143248,1.0254723284893565,0.49906089138421683
11.34493842,-0.653490749239194,1.0035894475459506,0.4732501698142799
11.35486642,-0.665576218957375,0.9860907206340083,0.443365219849917
11.36479442,-0.6665933197042293,0.9733620407580427,0.409533032309358
11.37472242,-0.6564866544289214,0.9656585938878541,0.37194160276195926
11.38465042,-0.6354449943368365,0.9630967365496689,0.3308395459452448
11.39457842,-0.603901191903873,0.9656481980348213,0.286534541378237
11.40450642,-0.5625268860000765,0.9731368783950737,0.23939058858271695
11.41443442,-0.5122219581249352,0.9852384908277058,0.18982405932123525
11.42436242,-0.45409880411127745,1.0014832491766703,0.1382985528928109
11.43429042,-0.3894616071265024,1.0212617312855117,0.0853185898046961
11.44421842,-0.31978093124923557,1.0438339628187085,0.0314222128559946
11.45414642,-0.24666409187590918,1.0683416713329343,-0.02282740376631702
11.46407442,-0.17182188853224695,1.0938235651546482,-0.0768512084443741
11.47400242,-0.09703239695963008,1.1192334043367824,-0.1300642322530657
11.48393042,-0.024102604003895634,1.1434605582057265,-0.18188606973772795
11.49385842,0.04517127128400784,1.1653526887717833,-0.23175166883875103
11.50378642,0.10904389241707244,1.183740160168295,-0.27912219978831
11.51371442,0.1658604653604457,1.1974617461204264,-0.3234957629737177
11.52364342,0.21409505739507306,1.2053911828546473,-0.3644176923319643
11.53357142,0.2523867082896949,1.206464086578911,-0.4014902109920362
11.54349942,0.27957250128587474,1.199704718300213,-0.4343811993660518
11.55342742,0.294716811075898,1.1842520348787504,-0.4628318440207641
11.56335542,0.2971360113862586,1.1593844192135856,-0.4866629487950428
11.57328342,0.28641800545529755,1.1245424420895385,-0.5057797067797108
11.58321142,0.2624360380393235,1.0793489810753647,-0.5201747523661909
11.59314338,0.2253563577181515,1.0236260143046156,-0.529929337923541
11.60307138,0.17563942392386805,0.9574074245984622,-0.5352125125947303
11.61299938,0.11403449433034556,0.8809471975165551,-0.536278223663985
11.62292737,0.04156758299940573,0.7947224796351038,-0.5334603145228831
11.63285538,-0.04047705606682146,0.6994310817356102,-0.5271654559761815
11.64278338,-0.13058159654972717,0.5959831630117403,-0.5178641162523886
11.65271137,-0.22702496736013408,0.48548701150083523,-0.5060797447912326
11.66263938,-0.3279181881659761,0.36922903581845534,-0.49237640999794946
11.67256738,-0.4312439138886431,0.24864829565070387,-0.4773451870696486
11.68249538,-0.5348992611111738,0.12530611353298596,-0.461589636815139
11.69242337,-0.6367408848160808,0.0008515173884374743,-0.44571075044633063
11.70235138,-0.7346311979222113,-0.1230165490732074,-0.43029175900411193
11.71227938,-0.826484584071774,-0.2445891544466398,-0.41588321856745775
11.72220737,-0.9103124489485077,-0.36218823959456803,-0.4029887825432063
11.73213537,-0.9842659863333557,-0.4742071449138283,-0.3920520597101657
11.74206338,-1.0466756000396031,-0.5791495443285188,-0.38344493078042324
11.75199138,-1.0960860205720064,-0.6756655912163104,-0.3774576556672696
11.76191937,-1.131286284181644,-0.7625842013301198,-0.37429104803862334
11.77184738,-1.151333897543595,-0.8389405578728005,-0.37405092665273154
