Time (s),Acceleration x (m/s^2),Acceleration y (m/s^2),Acceleration z (m/s^2)
9.004657917,-0.04613895720863116,0.36933446080602816,-0.1352311159648442
9.009413281,-0.21919336396022357,0.6682277570490813,-0.16062279093302104
9.014168646,-0.3899604645487333,0.9635932581618193,-0.18677113781426322
9.018923958,-0.5561562478559241,1.2517138613409446,-0.21338862787703566
9.023679323,-0.7155615391788415,1.5290020555182544,-0.24016090905626664
9.028434636,-0.866059271361977,1.7920692351784815,-0.2667492231822832
9.03319,-1.0056701294270538,2.037790709031634,-0.2927937108749705
9.037945365,-1.1325859225316701,2.2633648833030517,-0.3179176076617659
9.042700677,-1.245200072482712,2.4663652546196766,-0.34173228004102385
9.047456042,-1.3421346516310841,2.644784040128906,-0.36384300887722426
9.052211354,-1.4222634548017643,2.797066495152608,-0.38385539836651833
9.056966719,-1.4847306502109627,2.9221352132392955,-0.4013822670618636
9.061722083,-1.5289646237875656,3.019403961761598,-0.41605085992951707
9.066477396,-1.5546867108631648,3.0887808700019876,-0.4275102072727165
9.071232761,-1.5619145988609933,3.130661047742375,-0.43543844997504627
9.075988073,-1.5509602832833629,3.1459089630316996,-0.43954995292901056
9.080743438,-1.5224225656615888,3.1358311412611317,-0.4396020390505702
9.085498802,-1.4771741949544221,3.1021399577745288,-0.43540119169890756
9.090254115,-1.4163438711910905,3.0469094776754084,-0.4268085900552598
9.095009479,-1.3412934490285409,2.9725244457927134,-0.41374485761468366
9.099764844,-1.2535907959734465,2.881623645797057,-0.3961939170911356
9.104520156,-1.1549788715855698,2.777038930901001,-0.3742058554301047
9.109275521,-1.0473416954785515,2.6617312811813765,-0.34789871110707943
9.114030833,-0.9326679580338276,2.538725266586359,-0.3174591044263609
9.118786198,-0.813013093409026,2.4110432924432947,-0.2831416428514591
9.123541563,-0.6904606762506917,2.2816409777575046,-0.2452670502132188
9.128296875,-0.5670840200323294,2.153344967355909,-0.20421899260076115
9.13305224,-0.444908845720156,2.028794408376764,-0.16043960457953146
9.137807552,-0.32587785444821366,1.9103872313765748,-0.11442375477324139
9.142562917,-0.21181797763476645,1.800232268519352,-0.06671212605700864
9.147318281,-0.10441099454781885,1.7001081183685407,-0.017883218755534423
9.152073594,-0.005168104536679831,1.6114295311751565,0.03145558740609229
9.156828958,0.08459107620261229,1.5352219424611715,0.08067775627747856
9.161584271,0.16375475078090349,1.4721046280721575,0.12914793271578123
9.166339636,0.23143020191485594,1.422282792576909,0.176232715356132
9.171095,0.2869500055410489,1.385548736888726,0.22131168115520172
9.175850313,0.32987326745264756,1.3612920822935757,0.263788476100613
9.180605677,0.3599820935553676,1.3485188586014576,0.30310178492426104
9.18536099,0.3772736411150408,1.3458790956650624,0.33873599048586595
9.190116354,0.38194822421583463,1.3517023919490716,0.3702313306713857
9.194871719,0.3743940541503803,1.36404077369,0.3971933577896455
9.199627031,0.35516927852411484,1.3807180068096065,0.419301503654816
9.204382396,0.3249820371383709,1.3993843848769225,0.4363165544693109
9.209137708,0.28466927501543643,1.4175758930586726,0.44808684496442586
9.213893073,0.23517504110198612,1.4327765415978826,0.45455299194539334
9.218648438,0.17752895522418186,1.4424825732972093,0.45575100354003983
9.22340375,0.11282544897722907,1.444267178494925,0.45181362211676046
9.228159115,0.042204284787772925,1.4358443000993182,0.4429697863998648
9.232914427,-0.03316726011104997,1.4151300834354992,0.42954213188613927
9.237669792,-0.1121102822463207,1.3803005245258404,0.4119424874023836
9.242425156,-0.1934480723727596,1.329843899798178,0.3906653680280514
9.247180469,-0.2760178394157857,1.262606623843627,0.36627950976897505
9.251935833,-0.35868040707345633,1.1778312827887445,0.3394175402389968
9.256691146,-0.440328032927176,1.0751857308679644,0.3107639345661506
9.261446511,-0.5198905632060552,0.954782316882949,0.28104146829829346
9.266201875,-0.5963401829210224,0.8171865233720786,0.25099644690225686
9.270957188,-0.6686950522351366,0.6634145503485258,0.2213830569315806
9.275712552,-0.7360221373547503,0.49491965122735737,0.19294723567443317
9.280467865,-0.7974395493788604,0.3135673229999358,0.16641048272400683
9.285223229,-0.8521186979748501,0.12159975635504439,0.14245403167203696
9.289978594,-0.8992865479683618,-0.0784097458853897,0.12170376409672903
9.294733906,-0.9382282350422616,-0.283611382121006,0.1047161903717012
9.299489271,-0.9682902512994168,-0.49094122646948457,0.09196575639224042
9.304244583,-0.9888843531161209,-0.6971898526481483,0.08383367505276458
9.308999948,-0.9994922744189486,-0.8990754922069191,0.08059843391413968
9.313755261,-0.9996712512060449,-1.0933198541771705,0.08242809755187541
9.318510625,-0.9890602813665795,-1.276724627345681,0.08937450227444851
9.32326599,-0.9673869614602593,-1.4462466379870786,0.10136942888239879
9.328021302,-0.934474663096578,-1.599069648855715,0.11822283257329248
9.332776667,-0.8902497401902414,-1.7326708614359885,0.13962320405106765
9.337531979,-0.8347483994517436,-1.8448803223386832,0.16514012753695062
9.342287344,-0.7681228254495673,-1.9339316331670326,0.19422908534603567
9.347042708,-0.6906461344834516,-1.9985026155483567,0.22623853296714494
9.351798021,-0.6027157440393967,-2.0377448813226704,0.26041923394946
9.356553386,-0.5048547902947159,-2.0513015916115775,0.29593580293386706
9.361308698,-0.3977113047972927,-2.0393130448990995,0.3318803608732438
9.366064063,-0.28205496894011156,-2.002410099020682,0.36728816119203656
9.370819375,-0.15877139397968934,-1.9416957902127137,0.40115500025394857
9.37557474,-0.02885401540723644,-1.8587158497241203,0.4324561795123293
9.380330104,0.10660616844260352,-1.7554191218306383,0.4601667389751567
9.385085417,0.24643265591150093,-1.6341091453250642,0.4832826315125491
9.389840781,0.38937684059042266,-1.4973883653908842,0.5008424559223421
9.394596094,0.5341322251019054,-1.3480965894545531,0.511949316495928
9.399351458,0.6793489042014513,-1.189245388170095,0.515792333146475
9.404106823,0.8236477931953036,-1.0239501734900414,0.51166729508716
9.408862136,0.9656341402873707,-0.8553616648556229,0.49899593776123957
9.4136175,1.1039099579760807,-0.6865983888473814,0.4773433295254892
9.418372813,1.2370851295025322,-0.5206817552269395,0.4464328803845383
9.423128177,1.3637870805980854,-0.3604751215307032,0.406158527021825
9.42788349,1.482669043285803,-0.20862810718685967,0.35659370431363957
9.432638854,1.59241706737776,-0.06752725332093701,0.2979967828810199
9.437394167,1.6917560488097483,0.06074604890079514,0.23081273467451652
9.442149531,1.7794551364435727,0.17444961702037734,0.1556708816312484
9.446904896,1.8543329463782796,0.2722059603778034,0.07337868016257369
9.451660208,1.9152630520852543,0.3530188083875439,-0.015088411629616227
9.456415573,1.9611802274845107,0.4162804900868845,-0.10860085318652839
9.461170886,1.9910878966802468,0.46177015842255337,-0.20589252336834957
9.46592625,2.0040671874410854,0.48964304303822237,-0.30558153342567224
9.470681563,1.9992878957040938,0.5004111084908237,-0.40619400950664103
9.475436927,1.976021547263976,0.49491568911667116,-0.5061904274017226
9.480192292,1.933656595009519,0.4742928634742471,-0.6039940037333591
9.484947604,1.8717156237683479,0.43993251502192476,-0.6980205735708361
9.489702969,1.7898742615423004,0.3934321951077523,-0.7867093212774983
9.494458333,1.687981328749943,0.33654705294450643,-0.8685536830612707
9.499213646,1.566079607939367,0.27113721878043806,-0.9421317072471463
9.503968958,1.4244264939471774,0.19911411505865514,-1.0061351425648395
9.508724323,1.2635136938298623,0.12238722035537776,-1.05939652899014
9.513479688,1.0840850898865912,0.04281281693774298,-1.1009135957479717
9.518235,0.8871518594212627,-0.03785378995125924,-1.1298703322951638
9.522990365,0.674003962642454,-0.11800118803971181,-1.1456541906740525
9.527745677,0.44621716530636985,-0.19619866454882223,-1.1478689944369465
9.532501042,0.2056548534190801,-0.271225857554378,-1.1363432581372304
9.537256354,-0.045535980986515616,-0.34209444902775193,-1.1111337500147194
9.542011719,-0.30493505794647136,-0.40806137243144086,-1.0725242513801234
9.546767083,-0.5698657435658234,-0.46863330516295665,-1.0210195774437885
9.551522396,-0.8374187391112667,-0.5235625222453676,-0.9573350279001678
9.556277761,-1.1044824874159263,-0.5728344897786949,-0.8823815343324696
9.561033073,-1.3677800821670973,-0.6166478625026351,-0.7972468669373082
9.565788438,-1.6239122922797242,-0.6553878080134398,-0.7031733545331658
9.57054375,-1.869406145105108,-0.6895938009458109,-0.6015326569218208
9.575299115,-2.1007683496413856,-0.7199232059576808,-0.4937982041396741
9.580054479,-2.314542685272727,-0.7471120928651293,-0.38151597951279065
9.584809792,-2.5073703347056027,-0.7719347971355165,-0.26627436947695493
9.589565156,-2.676052004769527,-0.7951637529006773,-0.14967382990791
9.594320469,-2.817610559989247,-0.8175310848547462,-0.033297123617110375
9.599075833,-2.929352796466177,-0.8396933530606164,0.08131913539576793
9.603831146,-3.008928912821577,-0.8622007055092435,0.19271093960733537
9.608586511,-3.0543881956253074,-0.8854715130874357,0.2995107256812286
9.613341823,-3.0642294334466613,-0.9097733472274598,0.4004680634781219
9.618097188,-3.0374446108218156,-0.9352109195369923,0.4944667811145529
9.6228525,-2.9735545150950946,-0.9617213432181335,0.580538239482636
9.627607865,-2.872635018313993,-0.9890768064723665,0.6578706066194661
9.632363229,-2.7353329741518912,-1.0168944770922024,0.7258141197608787
9.637118542,-2.5628708942502323,-1.044653194123705,0.7838824528400788
9.641873906,-2.35703983423423,-1.0717162560366191,0.8317504224829692
9.646629219,-2.120180218924493,-1.0973593942149438,0.8692483610180809
9.651384583,-1.855150658703108,-1.1208028340538596,0.8963535580515815
9.656139896,-1.565285142951941,-1.1412462006510051,0.9131792226765435
9.660895261,-1.2543393297820802,-1.1579049275362874,0.9199614481371051
9.665650573,-0.9264269717756576,-1.1700467785901416,0.9170446724139366
9.670405938,-0.5859478131337952,-1.177027096498788,0.9048661247516491
9.675161302,-0.23750855262509932,-1.1783214448119403,0.8839397329274825
9.679916615,0.11416132186025078,-1.1735544118650312,0.8548399426136027
9.684671979,0.46429686627489397,-1.1625234886167954,0.8181858716527549
9.689427292,0.8081861269094728,-1.1452171124450914,0.7746261903011068
9.694182656,1.1412576176257854,-1.1218261776456369,0.7248250838058458
9.698937969,1.4591647800219771,-1.0927485425047967,0.6694496153785227
9.703693333,1.7578654744778957,-1.0585863036054075,0.6091587646584141
9.708448646,2.0336947011598805,-1.0201358516191623,0.5445943681332156
9.713204011,2.2834289490444966,-0.9783709606994967,0.4763741328699474
9.717959323,2.504340808753828,-0.9344193879486886,0.4050868327323364
9.722714688,2.694242751719606,-0.8895336637921878,0.3312897268985602
9.727470052,2.8515192643489553,-0.8450569335206625,0.25550816458734277
9.732225365,2.9751468225241733,-0.8023848613000193,0.1782372591305225
9.736980677,3.0647014905120677,-0.7629247280846367,0.09994543185308767
9.741736042,3.1203542206321218,-0.7280529418074771,0.021079546128409937
9.746491406,3.1428542066155556,-0.6990722295590239,-0.05792871958320678
9.751246719,3.1335008951763896,-0.6771697949971806,-0.13665566739781518
9.756002083,3.0941054793101554,-0.6633776986440589,-0.21467798793173978
9.760757396,3.0269428791954427,-0.6585366543300601,-0.2915652362347186
9.765512761,2.9346953626979717,-0.6632643341342359,-0.36687282012501693
9.770268073,2.820389071740318,-0.6779291408307412,-0.44013591343258307
9.775023438,2.6873248098297537,-0.7026302464350768,-0.5108646589870406
9.77977875,2.5390045162575534,-0.7371845141217308,-0.5785409677133991
9.784534115,2.3790549079115766,-0.7811207252754423,-0.6426171549548071
9.789289427,2.211149810868677,-0.8336813306977992,-0.7025165859905321
9.794044792,2.038932728457372,-0.8938317417252125,-0.7576364318656286
9.798800104,1.8659411957776662,-0.9602769790826112,-0.8073525661124664
9.803555469,1.695534447317134,-1.0314853093584604,-0.8510265645451685
9.808310833,1.530825869182254,-1.1057183247027174,-0.888014705279189
9.813066146,1.374621617154227,-1.1810667638544434,-0.91767880455882
9.817821511,1.2293666559751855,-1.255491234651263,-0.9393986647027673
9.822576823,1.0970993172877253,-1.3268668818905165,-0.9525858520619234
9.827332188,0.9794152893638111,-1.3930309511423653,-0.9566984652478184
9.8320875,0.8774417475928139,-1.4518321295224947,-0.9512564993187453
9.836842865,0.7918221161908374,-1.5011804987042057,-0.935857364366519
9.841598177,0.722711723396388,-1.5390969134082817,-0.9101910820285343
9.846353542,0.6697843792188267,-1.5637606198662746,-0.8740546653982443
9.851108854,0.6322496721287205,-1.5735539530447789,-0.82736519006494
9.855864219,0.608880555259552,-1.5671029988982514,-0.7701710888034548
9.860619531,0.59805058000166,-1.543313179166551,-0.7026612506309737
9.865374896,0.5977799402647264,-1.5013988120769801,-0.6251715753370128
9.870130208,0.6057893166985732,-1.4409058235365322,-0.5381887226960143
9.874885573,0.6195603565273948,-1.3617269302129296,-0.44235089310526443
9.879640886,0.636401489158979,-1.2641087871817995,-0.3384455723573156
9.88439625,0.6535176581291278,-1.1486507856707597,-0.22740425680420054
9.889151563,0.6680824459956215,-1.016295396375093,-0.110294239194855
9.893906927,0.6773109835992116,-0.8683101752323928,0.011692420861691153
9.898662292,0.6785319750983153,-0.7062617749220543,0.1372525890973448
9.903417604,0.6692571437662762,-0.5319825294662531,0.26498823576353414
9.908172917,0.6472464189449364,-0.3475303935782175,0.3934248998467589
9.912928281,0.6105672477274044,-0.15514321548417437,0.5210322010262128
9.917683646,0.5576465282396459,0.042811504889904754,0.6462461164025204
9.922438958,0.4873138235133634,0.24389007727228326,0.7674926859068081
9.927194323,0.3988347218807489,0.44562789903171596,0.8832127551358301
9.931949636,0.2919334556169349,0.645595079079253,0.9918873133649498
9.936705,0.16680416652084923,0.841450912392137,1.0920629432530062
9.941460313,0.024110505993226915,1.0309957297644747,1.1823768710257905
9.946215677,-0.13502643239340206,1.2122187109601634,1.2615810929238847
9.95097099,-0.309051538240015,1.3833403545064566,1.3285650544611423
9.955726354,-0.49600985447846235,1.5428484412676284,1.3823763718825146
9.960481667,-0.6935905914062573,1.689526508785072,1.4222391094434872
9.965237031,-0.8991798183112505,1.8224740654011726,1.4475691626677543
9.969992344,-1.1099204308017063,1.9411180121223781,1.4579863479715107
9.974747708,-1.3227777940438503,2.0452149991620816,1.4533228630330006
9.979503021,-1.5346093093010595,2.134844714966118,1.433627857914279
9.984258386,-1.7422360489196054,2.210394379212606,1.399167940502955
9.989013698,-1.9425145562868131,2.272534978372886,1.350423527410201
9.993769063,-2.1324069142098216,2.322190033359994,1.2880810403518006
9.998524375,-2.309047249801946,2.360497914031616,1.213021037696185
10.00327974,-2.469802968086655,2.3887689063052346,1.12630246279964
10.00803505,-2.6123291886167874,2.408438388394467,1.0291432878793854
10.01279042,-2.7346150921247987,2.421017580189119,0.9228979372919779
10.01754573,-2.8350211549118143,2.4280433927815595,0.8090319865548039
10.02230109,-2.912306543019517,2.4310289228435558,0.6890947457619436
10.02705641,-2.965646244077348,2.43141610905201,0.5646904338848272
10.03181177,-2.9946378230952737,2.4305319962586664,0.43744871678634345
10.03656708,-2.999297991735806,2.4295499391377824,0.3089954020241612
10.04132245,-2.9800494705327636,2.429456921666965,0.1809240501626981
10.04607776,-2.9376988910059754,2.431027972800834,0.054769179192255914
10.05083312,-2.8734067204847853,2.4348084235486005,-0.06801837753564215
10.05558844,-2.788650388577381,2.4411044797043857,-0.1860935243544114
10.0603438,-2.685181944117127,2.4499822847438355,-0.29823604415590677
10.06509912,-2.564981669773904,2.4612753312307922,-0.4033665942036097
10.06985448,-2.4302091233332535,2.4745997636455193,-0.5005593950020322
10.07460979,-2.28315305602314,2.4893768198941495,-0.5890515113669371
10.07936516,-2.1261815799148116,2.5048614000539193,-0.6682486849880915
10.08412047,-1.9616938272598905,2.520175541993219,-0.7377277419481884
10.08887583,-1.7920741813400192,2.534345432351474,-0.7972356664926789
10.09363115,-1.6196499798518742,2.546340491591812,-0.8466854993327656
10.09838651,-1.4466534121999557,2.55511304345856,-0.8861492787770318
10.10314182,-1.2751881579725086,2.5596371093807586,-0.9158482911827023
10.10789719,-1.1072011465724292,2.5589449524343966,-0.9361409325514021
10.1126525,-0.944459657019251,2.552160127486191,-0.9475085092520189
10.11740786,-0.7885338228469594,2.538525967212922,-0.950539329275242
10.12216318,-0.640784462446563,2.517428639758903,-0.9459114610839882
10.12691854,-0.5023560246227576,2.488414143446145,-0.9343745648460203
10.13167385,-0.37417432740571055,2.4511988468497554,-0.9167312245297576
10.13642922,-0.256948678920704,2.4056734283451804,-0.89381821982706
10.14118453,-0.15117790362174902,2.351900308475932,-0.8664881669469092
10.1459399,-0.057159753924336934,2.2901048932198087,-0.8355919257125168
10.15069521,0.024996836932365995,2.22066115010078,-0.8019621216397305
10.15545057,0.09535721292768495,2.144072217118349,-0.7663980732232237
10.16020589,0.1541447096904435,2.0609468927482357,-0.7296523538215727
10.16496125,0.20172315068674646,1.9719729709402587,-0.6924191592364017
10.16971656,0.23857861851526047,1.8778884663015512,-0.6553245977401833
10.17447193,0.26530095279977606,1.7794518207287187,-0.6189189680066487
10.17922724,0.28256537657090475,1.677412193793337,-0.5836710416192246
10.1839826,0.2911145977477278,1.5724809161865971,-0.5499643218942603
10.18873792,0.29174167382745847,1.465305130271672,-0.5180952118677349
10.19349328,0.2852738694152732,1.3564445568804329,-0.48827299293218496
10.19824859,0.2725576815143284,1.2463522164400578,-0.4606214917869388
10.20300396,0.25444515992706707,1.1353597996539453,-0.43518229575325756
10.20775927,0.23178161187989121,1.023668233035861,-0.41191936298781934
10.21251464,0.20539475172989585,0.9113438222671366,-0.3907248627373691
10.21726995,0.1760853377006788,0.798320185809542,-0.3714260706968868
10.22202531,0.14461932632820712,0.6844060160445099,-0.3537931363508599
10.22678062,0.11172156878451611,0.5692985285464112,-0.337547534219206
10.23153594,0.07807106750723371,0.4526022849430971,-0.3223710103479769
10.2362913,0.044297802490497855,0.3338529043058378,-0.30791483975224454
10.24104667,0.010981121066867824,0.21254501541274978,-0.29380922004098564
10.24580198,-0.021350338626637298,0.08816365096324218,-0.2796726410470139
10.25055729,-0.05221725219546914,-0.03978185137302392,-0.265121088973374
10.25531266,-0.08118684207167343,-0.17172249320196986,-0.24977696405764097
10.26006797,-0.10786888290982183,-0.3079939507440387,-0.23327761015340248
10.26482333,-0.13191066756431458,-0.4488018135290946,-0.2152833707251271
10.26957865,-0.15299116435019547,-0.5941889744415131,-0.19548509771039893
10.27433401,-0.17081463345911457,-0.7440064207092305,-0.17361104786993584
10.27908932,-0.1851039992703351,-0.897888639524099,-0.14943310655424263
10.28384469,-0.1955942932938311,-1.055234775472654,-0.12277228232699156
10.2886,-0.2020264879877878,-1.2151965577366326,-0.09350341873203569
10.29335536,-0.20414203407456108,-1.3766738528787266,-0.06155907284004034
10.29811068,-0.20167839307839971,-1.5383184961992,-0.026932514750706155
10.30286604,-0.1943658226483154,-1.6985468157300918,0.010320192440063646
10.30762135,-0.1819256255760759,-1.8555609944709643,0.05007906775125604
10.31237672,-0.1640700167170207,-2.0073791265922303,0.09216007387076498
10.31713203,-0.1405036997215844,-2.151873521392089,0.1363159910178094
10.3218874,-0.11092718329298563,-2.286816504940661,0.18223831793261494
10.32664271,-0.07504180994331526,-2.409932674179803,0.22956019492734628
10.33139807,-0.03255642219268024,-2.518956282633948,0.27786031637751873
10.33615339,0.016804447776746678,-2.6116921917586864,0.3266677710018278
10.34090875,0.07329101083830405,-2.6860786180236778,0.37546772566235065
