Time (s),Acceleration x (m/s^2),Acceleration y (m/s^2),Acceleration z (m/s^2)
9.003136193,2.907758303682793,-1.4617112660186482,0.35642999152506777
9.007912443,2.8147541976434955,-1.4793349243354512,0.3070643682834358
9.012675308,2.7157955431055507,-1.4954211060237095,0.2571090426774605
9.017464839,2.611220328045073,-1.5102296392345542,0.20661557660626736
9.022241037,2.501373445454918,-1.5240376110646807,0.1556357644818537
9.027017235,2.3866043271733832,-1.5371367927437776,0.1042222530031005
9.031793433,2.2672647574248423,-1.5498308673089372,0.05242919401831465
9.036569683,2.1437068886009008,-1.56243247916654,0.00031291904998529736
9.041345881,2.0162814794445185,-1.5752601261782448,-0.05206737622893624
9.046122078,1.8853363730580335,-1.5886349158086142,-0.10464894933419441
9.050898276,1.7512152289615872,-1.6028772074279445,-0.15736484165092823
9.055674474,1.6142565197697907,-1.6183031631233082,-0.2101432334192465
9.060450672,1.4747927989658194,-1.6352212294424489,-0.2629068331429338
9.065226922,1.3331502417853487,-1.6539285725168456,-0.31557231048130263
9.069989787,1.189648456423929,-1.6747074890950842,-0.36804978045425446
9.074779318,1.0446005576847994,-1.697821816217083,-0.42024234538756855
9.079555516,0.8983134898230226,-1.7235133625653252,-0.4720456994498023
9.084318433,0.7510885797604827,-1.7519983849013192,-0.5233477989434031
9.089107912,0.6032222961044023,-1.7834641333955152,-0.5740285998459196
9.09388411,0.4550071835796985,-1.818065490072222,-0.6239598626329691
9.098647026,0.306732936694095,-1.8559217250323812,-0.6730050233295302
9.103436558,0.15868757084136323,-1.8971133956168083,-0.7210191291676779
9.108212756,0.011158643794327612,-1.9416794142541136,-0.7678488372687347
9.112975672,-0.1355655241195606,-1.9896143114014953,-0.8133324754713613
9.117765151,-0.28119468660517183,-2.0408657207073504,-0.8573001658023695
9.122541349,-0.4254356225862906,-2.095332114257945,-0.8995740130459872
9.127304266,-0.5679912604201274,-2.1528608164722147,-0.939968363183369
9.132093797,-0.7085600319953748,-2.2132463258559003,-0.9782901388029813
9.136869995,-0.8468355096577866,-2.276228974411792,-1.0143392605373014
9.14163286,-0.9825063726819019,-2.3414939550045717,-1.047909164804978
9.146422391,-1.1152567416361634,-2.4086707473350906,-1.0787874283517735
9.151198589,-1.2447669087175697,-2.4773329732993856,-1.1067565091432723
9.155961506,-1.3707144802811706,-2.5469987122957454,-1.1315946111301214
9.160751037,-1.4927759348018939,-2.6171313064007213,-1.153076677599155
9.165527235,-1.6106285859789835,-2.6871406841490995,-1.1709755147629068
9.170290099,-1.7239529273434548,-2.7563852297899305,-1.1850630445029353
9.175079631,-1.8324353222845646,-2.8241742222199955,-1.1951116832289228
9.179855828,-1.9357709924584985,-2.8897708642243445,-1.2008958428777103
9.184618745,-2.0336672484032627,-2.9523959181295325,-1.202193550142205
9.189408276,-2.1258468989133825,-3.0112319584582283,-1.1987881808892564
9.194184474,-2.2120517702234865,-3.0654282456129427,-1.1904703080838117
9.198947339,-2.292046262173458,-3.114106216973778,-1.1770396630056124
9.20373687,-2.3656208661740954,-3.1563655830980477,-1.158307210718365
9.208513068,-2.4325955688942806,-3.191291007099632,-1.1340973412433086
9.213275985,-2.492823066089519,-3.2179593350351663,-1.1042501773761841
9.218065516,-2.546191712798247,-3.235447334601739,-1.0686239983239212
9.222841714,-2.5926281391152948,-3.2428398890533088,-1.0270977751664254
9.227604578,-2.6320994647655787,-3.2392385833458475,-0.9795738095400783
9.23239411,-2.6646150506296022,-3.2237706104827772,-0.9259804610643179
9.237170308,-2.6902277311678495,-3.1955979182031493,-0.8662749422967906
9.241933224,-2.7090344784022444,-3.153926509833683,-0.8004461529751359
9.246722703,-2.7211764558845535,-3.098015808479536,-0.728517518563117
9.251498953,-2.7268384300905995,-3.0271879907473034,-0.6505497921259377
9.256261818,-2.7262475170266027,-2.940837194711437,-0.5666437736332457
9.261051349,-2.7196712534782623,-2.838438506600951,-0.4769428971626944
9.265827547,-2.70741499510473,-2.7195566314377957,-0.3816356343599072
9.270590464,-2.6898186572275278,-2.583854154379243,-0.2809576620961292
9.275379943,-2.6672528283640675,-2.4310993016216504,-0.17519374368628726
9.280156193,-2.6401143008808203,-2.261173112260014,-0.06467927625359249
9.284932391,-2.6088210770738414,-2.0740759353638962,0.05019853848024121
9.289708589,-2.573806921998589,-1.869933169712954,0.1689999372014785
9.294484787,-2.5355155460364034,-1.6490001672101327,0.2912322835414574
9.299247703,-2.4943945101944225,-1.4116662250433494,0.4163502290443843
9.304037183,-2.4508889552536894,-1.1584575962055923,0.5437563695217056
9.308813433,-2.4054352618991848,-0.8900394529326454,0.672802416515415
9.313576297,-2.358454752715363,-0.6072167428936301,0.8027909006504541
9.318365828,-2.310347548300722,-0.3109338835878204,0.9329774205624456
9.323142026,-2.2614866887009146,-0.002273246533076032,1.062573447521481
9.327904943,-2.2122126279302052,0.3175476102503683,1.1907496916518532
9.332694422,-2.1628282037234396,0.6471799949951557,1.3166400306604147
9.337470672,-2.1135941771275855,0.9851494445326624,1.4393459961854336
9.342233537,-2.064725427424888,1.3298624100658734,1.5579418063351824
9.347023068,-2.0163878774257165,1.679614268295701,1.6714799258970896
9.351799266,-1.9686962124963692,2.032598646518839,1.7789971283089292
9.356562183,-1.9217124438149173,2.3869180356744297,1.8795210260333812
9.361351662,-1.8754453522597618,2.7405956494721186,1.9720770287290639
9.366127912,-1.8298508339993658,3.09158847086279,2.055695681871364
9.370890776,-1.784833152256306,3.4378014094421045,2.1294203325155983
9.375680308,-1.7402470820524867,3.7771024752218527,2.1923150638142976
9.380456506,-1.695900916656545,4.107338856042281,2.24347283558352
9.385219422,-1.651560287111981,4.426353768399825,2.282023764422021
9.390008901,-1.6069527309239326,4.732003935397368,2.307143473413099
9.394785099,-1.5617729335870498,5.022177531559982,2.318061438191371
9.399548016,-1.5156885572964118,5.2948124228176905,2.314069253165968
9.404337547,-1.468346564530443,5.547914521185997,2.2945287390752562
9.409113745,-1.4193799397155642,5.779576067531604,2.258879810974623
9.413876662,-1.3684147094280787,5.987993652150802,2.206648024406606
9.418666141,-1.3150771602058597,6.171485781529363,2.1374517170137857
9.423442339,-1.2590011527656837,6.3285098004281695,2.0510086632982243
9.428205256,-1.1998354320926332,6.457677981246733,1.9471421615962978
9.432994787,-1.137250834438837,6.557772597442538,1.825786474565479
9.437770985,-1.0709472947735323,6.627759804661384,1.6869915475132873
9.442533849,-1.0006605617363316,6.666802162176054,1.53092693272395
9.447323381,-0.9261685317321583,6.6742696381931506,1.3578848525851446
9.452099578,-0.8472971194945406,6.6497489554746725,1.1682823398220104
9.456862495,-0.7639255891627335,6.59305114840235,0.9626623995124993
9.461652026,-0.6759912774892127,6.504217218932385,0.7416941447523365
9.466428224,-0.5834936489775152,6.38352179666401,0.5061718658036191
9.471191089,-0.48649763131545287,6.231474727278193,0.25701300123516535
9.47598062,-0.38513618824095763,6.048820533688968,-0.004745011121842323
9.480756818,-0.2796120958393432,5.836535715186127,-0.27794901568622277
9.485519735,-0.17019889713130873,5.595823871427518,-0.5613355549673065
9.490309266,-0.057241018589402996,5.328108660146461,-0.8535374106668744
9.495085464,0.05884695914824404,5.035024619652343,-1.1530912495593904
9.499861662,0.1775818756541855,4.718405909401957,-1.4584463417818105
9.50463786,0.29841440123333535,4.380273043905285,-1.7679743068560638
9.509414058,0.42073226665597885,4.022817716832046,-2.079979830125869
9.514190256,0.5438642874583245,3.6483858332686063,-2.3927122794532
9.518966506,0.6670851507547868,3.259458888525801,-2.704378139164286
9.523742703,0.78962092536174,2.858633851608887,-3.013154165549016
9.528518901,0.9106552490790791,2.448601730312365,-3.3172011558771803
9.533295099,1.0293361401169425,2.032125012754593,-3.614678211050658
9.538071297,1.1447833728011467,1.612014196850391,-3.9037573607906717
9.542834214,1.2560963507932899,1.1911036345376351,-4.182638409790724
9.547623745,1.362362404160562,0.772226931318252,-4.449563853702709
9.552399943,1.462665429887864,0.3581921536409972,-4.702833705362707
9.557162808,1.5560947890913428,-0.048242893360224116,-4.940820064538013
9.561952339,1.6417543685213056,-0.44439504747565123,-5.161981258947334
9.566728537,1.7187717091166008,-0.8276795547629158,-5.364875380657319
9.571491453,1.7863071004914282,-1.1956329404761743,-5.548173040523264
9.576280933,1.8435625373588056,-1.545934708056652,-5.710669164539205
9.581057183,1.8897904321206862,-1.8764275928804808,-5.851293660352616
9.585820047,1.9243019773984436,-2.185136105789524,-5.9691207905287875
9.590609578,1.946475053493923,-2.4702831145011843,-6.0633771023374115
9.595385776,1.955761579162042,-2.7303042296785605,-6.133447782878345
9.600148693,1.9516942104479078,-2.9638597880996786,-6.1788813342499544
9.604938224,1.9338923029411623,-3.1698442599983077,-6.199392496849759
9.609714422,1.902067068644752,-3.3473929533835487,-6.194863389103643
9.614477287,1.8560258788683235,-3.4958859455413553,-6.165342875734587
9.619266818,1.795675685513796,-3.6149492380496207,-6.111044218767749
9.624043016,1.721025550395706,-3.704453199953602,-6.032341100871066
9.628805933,1.6321882838646826,-3.7645084265403543,-5.929762137170141
9.633595412,1.5293812012899097,-3.795459192752211,-5.803984010107752
9.63837161,1.4129260112857036,-3.7978747185268418,-5.655823374336962
9.643134526,1.2832478542974761,-3.7725384887827205,-5.486227686923058
9.647924058,1.1408735145435982,-3.720435884989617,-5.296265123340567
9.652700256,0.9864288322694563,-3.642740389868356,-5.08711374223928
9.657463172,0.8206353467712911,-3.5407986230509247,-4.860050061685674
9.662252651,0.6443062036583522,-3.41611445462357,-4.616437206407929
9.667028901,0.4583413622821134,-3.2703324265347558,-4.357712779389824
9.671791766,0.26372214108459535,-3.1052206902435415,-4.085376602086167
9.676581297,0.06150513969368118,-2.9226536442996944,-3.8009784559532873
9.681357495,-0.14718442312637436,-2.724594429459503,-3.506105944466121
9.686120412,-0.3611599168865504,-2.5130774130151643,-3.202372579941587
9.690909891,-0.5791810138107572,-2.290190769517993,-2.8914061839482854
9.695686141,-0.7999618719445791,-2.0580592428724853,-2.5748376745970045
9.700449006,-1.022179747669153,-1.8188271553957607,-2.254290299411074
9.705238537,-1.2444839963761685,-1.574641713276139,-1.9313693595702695
9.710014735,-1.465505417002645,-1.3276366454192343,-1.6076524607380251
9.714777651,-1.6838658919941973,-1.0799162046173532,-1.2846803178363773
9.719567131,-1.8981882689729916,-0.8335395571391644,-0.9639481362098036
9.724343328,-2.1071064237801953,-0.5905055900316399,-0.6468975894549865
9.729106245,-2.309275436702471,-0.35273817519873973,-0.3349094141218897
9.733895776,-2.503381805212755,-0.12207194549257622,-0.029296642414971888
9.738671974,-2.6881536087463633,0.09976134079191967,0.2687015051521077
9.743434891,-2.8623705353031608,0.3111457473569837,0.5579250451540193
9.74822437,-3.0248736766400874,0.5105932980640766,0.8372979538293914
9.753000568,-3.1745749979857703,0.6967551684495092,1.1058321686955825
9.757763485,-3.310466388596242,0.8684317848585048,1.3626308559056561
9.762553016,-3.431628200529999,1.0245816855549614,1.6068909369952733
9.767329214,-3.5372371847895376,1.1643290059857565,1.837904876903666
9.772092078,-3.6265737366495157,1.2869694644726493,2.0550617434067755
9.77688161,-3.6990283656092258,1.391974743359855,2.2578475552674364
9.781657808,-3.7541073099465847,1.4789951826087426,2.445844941961934
9.786420724,-3.7914372214928114,1.5478607268273068,2.6187321418845264
9.791210256,-3.810768853455121,1.5985800918562902,2.7762813689797805
9.795986453,-3.8119796933636767,1.6313381426398257,2.918356580430245
9.800749318,-3.7950754945939615,1.6464914996833369,3.0449106807937563
9.805538849,-3.7601906729892174,1.6445624165381858,3.155982201025182
9.810315047,-3.707587549190126,1.6262309950688403,3.2516914940878414
9.815091245,-3.637654431743125,1.5923258283478072,3.3322364921847454
9.819867495,-3.5509025504434346,1.543813182462652,3.397888073778141
9.824643693,-3.4479618632873548,1.4817848479151907,3.448985091260708
9.829406558,-3.3295757734890175,1.4074448083226196,3.4859291121871836
9.834196089,-3.196594804989289,1.322094888545849,3.5091789282781383
9.838972287,-3.049969295686627,1.2271195559901227,3.5192448869990023
9.843735203,-2.8907411773693936,1.123970057541571,3.516683100505677
9.848524735,-2.7200349201912744,1.0141480804067668,3.502089586253393
9.853300933,-2.5390477276157957,0.8991891280794178,3.4760943926770156
9.858063797,-2.349039075105739,0.7806458028928649,3.4393557621127657
9.862853328,-2.1513196924591687,0.6600711842910187,3.3925543815445103
9.867629526,-1.9472400955884839,0.539002487256528,3.3363877697963047
9.872392443,-1.7381787786569425,0.41894517847388524,3.271564847419536
9.877181922,-1.5255301817203317,0.3013577189501278,3.1988007326759345
9.881958172,-1.3106925522094515,0.1876370911026695,3.11881180357998
9.886721037,-1.0950558205645664,0.07910525587856918,3.0323110617832096
9.891510568,-0.8799896109580208,-0.023003328555663956,2.940003829057549
9.896286766,-0.666831507214206,-0.11755301041944859,2.842583801315985
9.901049683,-0.45687569169860626,-0.2035169706064605,2.7407294787572445
9.905839162,-0.2513620711171842,-0.27998588935518987,2.635100984285314
9.910615412,-0.05146599797702166,-0.3461751887350136,2.526337276351791
9.915378276,0.14171130985040228,-0.4014308041898445,2.415053757211692
9.920167808,0.327151556198752,-0.44523345599641245,2.301840273450658
9.924944006,0.5039272729680727,-0.4772014087410982,2.1872595024627373
9.929706922,0.6712087671871071,-0.49709172367262155,2.071845716092538
9.934496401,0.8282700399699834,-0.504800024913146,1.956103910602047
9.939272651,0.9744936195487885,-0.5003588158510213,1.840509290199364
9.944035516,1.1093742627742205,-0.4839343964467819,1.7255070893542825
9.948825047,1.2325214927650194,-0.4558224455489951,1.6115127168830488
9.953601245,1.3436609544981668,-0.41644234456697476,1.498912202249683
9.958364162,1.4426345847452053,-0.3663303299464191,1.3880629217090488
9.963153641,1.5293996075096705,-0.30613157183531436,1.2792945788688213
9.967929839,1.6040263806170425,-0.23659128512654085,1.1729104110872473
9.972692756,1.666695132976181,-0.15854498674119283,1.0691885900058142
9.977482287,1.7176916449519637,-0.07290801958041732,0.9683837816107721
9.982258485,1.7574019360361939,0.019335530992857633,0.8707288286855176
9.987021401,1.786306034455279,0.11714439802204756,0.7764365164994864
9.991810881,1.8049709124785842,0.219432038044257,0.6857013811973516
9.996587078,1.814042679021577,0.32507874560483324,0.5987015196893912
10.00135,1.8142381277276591,0.4329438422043841,0.5156003599506169
10.00613953,1.8063357441111174,0.5418778060260986,0.4365483515458377
10.01091572,1.7911662795718772,0.6507342117160116,0.36168453792686145
10.01567859,1.7696030031288137,0.758381353980096,0.2911379745762247
10.02046812,1.7425517435051783,0.8637134347666953,0.22502896033710484
10.02524432,1.710940834672788,0.9656612012426478,0.16347005319143812
10.03000724,1.6757110770689028,1.0632019305414584,0.10656684624873677
10.03479677,1.6378058244030669,1.1553686672259478,0.054418484701934326
10.03957296,1.59816130224079,1.2412586304065862,0.0071179098939215145
10.04433583,1.5576972593551635,1.3200407193246486,-0.03524817768517185
10.04912536,1.517308046137563,1.3909620587843083,-0.0725996387710759
10.05390156,1.4778542061305457,1.453353538934096,-0.10486349534282968
10.05866447,1.4401546570386747,1.5066343173681036,-0.13197480041239235
10.06345401,1.4049795265897322,1.5503152651157754,-0.1538777614926987
10.0682302,1.3730436967893924,1.5840013515510003,-0.17052709546428557
10.0730064,1.3450010980722145,1.6073929762886483,-0.18188958660381374
10.0777826,1.3214397832654776,1.6202862684755124,-0.18794581403567087
10.0825588,1.3028778006024218,1.6225723853022436,-0.18869200999601576
10.08732171,1.2897598753720523,1.6142358519165725,-0.18414200614237297
10.09211119,1.2824549010443818,1.5953519941270846,-0.1743292217162078
10.09688744,1.2812542326390617,1.5660835233198673,-0.15930864466311576
10.10165031,1.2863707675218912,1.526676339864051,-0.13915875484592077
10.10643984,1.297938791626482,1.47745462696666,-0.11398333730041318
10.11121604,1.3160145623293036,1.4188153114662239,-0.08391313317095922
10.11597895,1.3405775929723118,1.3512219714442104,-0.0491072766342808
10.12076843,1.3715325984981588,1.2751982728095788,-0.009754467885982715
10.12554468,1.4087120569993927,1.1913210182208267,0.033926164771887625
10.13030755,1.4518793382760466,1.100212891921069,0.08168455645150656
10.13509708,1.5007323477389165,1.0025349833662662,0.13323958789965565
10.13987328,1.55490763209769,0.8989791710383578,0.1882793884900071
10.14463619,1.6139848920941362,0.7902604456859139,0.24646208170037348
10.14942567,1.6774918469286968,0.6771092495634908,0.30741698531069495
10.15420187,1.7449093948460512,0.5602639051747167,0.3707462683577502
10.15897812,1.8156770144850196,0.44046320366269115,0.4360270564734886
10.16375432,1.8891983519981526,0.31843921939244646,0.5028139671470788
10.16853052,1.9648469395937005,0.1949104134455648,0.5706420471406609
10.17329343,2.0419719920751085,0.07057508466873748,0.6390300760760238
10.17808291,2.119904229199281,-0.053894777464105044,0.707484193274915
10.18285916,2.1979616732973106,-0.17785918865267095,0.7755017993498652
10.18762203,2.2754553736479375,-0.30071536983183456,0.842575679801567
10.19241156,2.3516950115979225,-0.421902412600375,0.9081982949296808
10.19718776,2.4259943433926545,-0.5409053769965322,0.9718661786179355
10.20195067,2.497676441098178,-0.6572587947852717,1.033084387902909
10.20674015,2.5660786958351993,-0.7705495578296384,1.091370945566684
10.2115164,2.6305575517780944,-0.8804191776151586,1.1462612191977424
10.21627927,2.69049294396217,-0.9865654084243809,1.197312182132451
10.2210688,2.745292417834571,-1.0887432328726223,1.2441065043113309
10.225845,2.794394913592684,-1.186765214408116,1.286256424262725
10.23060786,2.837274203564001,-1.2805012268792832,1.3234073570924247
10.23539739,2.8734419760589933,-1.3698775763274154,1.35524119747453
10.24017359,2.9024505641351293,-1.4548755347300428,1.3814792811912229
10.24494979,2.923895322414806,-1.5355293094660372,1.4018849737399595
10.24972604,2.9374166593833793,-1.6119234757984282,1.4162658598661155
10.25450224,2.94270173635439,-1.684189902731423,1.424475513487665
10.25927843,2.9394858474580587,-1.7525042053089748,1.4264148332244666
10.26405463,2.927553497550503,-1.817081758925091,1.422032934513993
10.26883083,2.9067391968237737,-1.878173313629368,1.4113275950312674
10.27359375,2.8769279920585737,-1.9360602487953325,1.3943452558300526
10.27838322,2.8380557548073475,-1.991049510874586,1.371180586292456
10.28315947,2.790109246237366,-2.0434682792481302,1.3419756265900726
10.28792234,2.7331259768689553,-2.093658407351888,1.306918526848171
10.29271187,2.667193877056564,-2.1419706882306784,1.2662419074538611
10.29748807,2.5924507908830496,-2.188758995388338,1.2202208698264563
10.30225098,2.5090838022989006,-2.2343743511783325,1.1691706913182374
10.30704046,2.4173283979663953,-2.279158975975952,1.1134442415469825
10.31181671,2.3174674664979085,-2.3234403719966226,1.0534291601544528
10.31657958,2.209830128785939,-2.3675254959223264,0.9895448375079663
10.32136911,2.094790389176492,-2.4116950745261074,0.9222392400298838
10.32614531,1.9727655927097572,-2.4561981172819682,0.8519856205791195
10.33090822,1.8442146699992445,-2.5012466795291664,0.7792791517270289
10.3356977,1.7096361490143772,-2.5470109291302747,0.7046335161775217
10.34047395,1.5695659124583292,-2.59361456873283,0.628577484431935
10.34523682,1.4245746808038,-2.6411306647363113,0.551651505564169
10.35002635,1.2752652043450108,-2.689577932883853,0.47440433300357054
10.35480255,1.1222691525819408,-2.738917528987194,0.3973897036827765
10.35956546,0.9662436954292914,-2.78905039152752,0.3211630857916236
