Time (s),Acceleration x (m/s^2),Acceleration y (m/s^2),Acceleration z (m/s^2)
10.00135,0.9493523836,-7.6426754,0.1310070455
10.00613953,0.6011967063,-7.142575741,0.2667997181
10.01091572,0.3050848842,-6.656832695,0.4115654826
10.01567859,-0.132801652,-6.214758396,0.5766702294
10.02046812,-0.5659025311,-5.868995667,0.650847733
10.02524432,-1.009771109,-5.571687698,0.6819544435
10.03000724,-1.542772412,-5.32163763,0.6843472719
10.03479677,-2.191227436,-5.096712112,0.6873382926
10.03957296,-2.924627542,-4.901099205,0.7202396393
10.04433583,-3.608376503,-4.816154003,0.8482556343
10.04912536,-4.188037872,-4.832305431,1.01036942
10.05390156,-4.339982033,-4.991427898,1.010967612
10.05866447,-3.583251953,-5.379663467,0.7716853023
10.06345401,-2.542374134,-5.815755367,0.4115654826
10.0682302,-1.709671736,-6.329015732,0.1244267747
10.0730064,-1.124626637,-6.814160824,-0.1274178028
10.0777826,-0.8057830334,-7.270591736,-0.3116651475
10.0825588,-0.7100701332,-7.703692436,-0.4558327198
10.08732171,-0.6957131624,-8.113463402,-0.6185446382
10.09211119,-0.6622136831,-8.465208054,-0.8440681696
10.09688744,-0.5724828243,-8.840283394,-1.170090318
10.10165031,-0.3451646566,-9.205786705,-1.555334687
10.10643984,0.07178468257,-9.551549911,-2.017747641
10.11121604,0.5551348329,-9.833903313,-2.548356056
10.11597895,0.9750752449,-10.10309505,-3.154936552
10.12076843,1.328614831,-10.30887794,-3.833301783
10.12554468,1.557129383,-10.43809032,-4.6402812
10.13030755,1.653440475,-10.47637558,-5.36052084
10.13509708,1.693520188,-10.46620655,-5.778068542
10.13987328,1.649851203,-10.37946606,-5.840879917
10.14463619,1.551147223,-10.29332447,-5.528018475
10.14942567,1.493121386,-10.22154045,-4.895116806
10.15420187,1.45483613,-10.21735287,-4.145565033
10.15897812,1.526620865,-10.28016472,-3.330210924
10.16375432,1.602592945,-10.4291172,-2.568096876
10.16853052,1.732403636,-10.63669491,-1.838884234
10.17329343,1.945963025,-10.84786129,-1.177268744
10.17808291,2.164308071,-11.07876873,-0.5880361795
10.18285916,2.377269268,-11.30070305,-0.1136590764
10.18762203,2.556132793,-11.53161049,0.2644068897
10.19241156,2.773281336,-11.690135,0.6089733839
10.19718776,2.998805046,-11.70389366,0.8859425783
10.20195067,3.21356082,-11.6267252,1.086939692
10.20674015,3.403790236,-11.5202446,1.19581306
10.2115164,3.523431301,-11.40957642,1.301097274
10.21627927,3.580260992,-11.30309582,1.391426325
10.2210688,3.537788391,-11.17807102,1.516451359
10.225845,3.428914785,-11.01416302,1.670190215
10.23060786,3.296711445,-10.8556385,1.858026743
10.23539739,3.073580742,-10.69771194,1.99800694
10.24017359,2.773879766,-10.66481018,2.004587173
10.24494979,2.50169611,-10.79521942,1.905285001
10.24972604,2.302493572,-11.04108143,1.791625977
10.25450224,2.032104731,-11.31206894,1.797608018
10.25927843,1.648056626,-11.56331539,1.843071699
10.26405463,1.140179992,-11.772089,1.922633052
10.26883083,0.560518682,-11.93240833,1.959123492
10.27359375,0.01316052489,-12.08255768,1.904686809
10.27838322,-0.4199403822,-12.19442272,1.796411633
10.28315947,-0.8638089895,-12.2051897,1.612164259
10.28792234,-1.155135155,-12.1669054,1.387837172
10.29271187,-1.505085468,-12.14836025,0.9188438654
10.29748807,-1.86580348,-12.20698452,0.3020938635
10.30225098,-2.036890268,-12.3421793,-0.4504488707
10.30704046,-2.017747641,-12.49113274,-1.386042476
10.31181671,-1.756929994,-12.63470173,-2.303689957
10.31657958,-1.027717352,-12.78664589,-2.970091105
10.32136911,0.003589233849,-12.89970684,-3.243471146
10.32614531,1.108475089,-13.06540966,-3.124428272
10.33090822,2.268395901,-13.29870987,-2.699103832
10.3356977,3.30927372,-13.53320694,-2.204387903
10.34047395,3.867997885,-13.64267826,-1.933998942
10.34523682,3.915854216,-13.54158115,-1.800000787
10.35002635,3.80159688,-13.32443333,-1.651047587
10.35480255,3.649054527,-13.0887394,-1.573280931
10.35956546,3.519243956,-12.93021584,-1.697707653
10.36435494,3.288934708,-12.79561901,-2.008176327
10.36913114,2.83370018,-12.61376476,-2.515454769
10.37390739,2.39222455,-12.38824081,-2.935395241
10.37868359,2.019542217,-12.17169094,-3.144168854
10.38345979,1.733001828,-11.94138145,-3.166900873
10.38823599,1.451845169,-11.65783215,-2.997608662
10.39301218,0.9870393276,-11.25942707,-2.641077995
10.39778838,0.4175475538,-10.69711399,-1.99501586
10.4025513,-0.1076770201,-10.09711361,-1.24366951
10.40734083,-0.5611169338,-9.717252731,-0.5988038778
10.41211703,-0.9290133715,-9.57906723,0.09870393574
10.41687994,-1.223928809,-9.608977318,0.8344969153
10.42166942,-1.40997076,-9.653244972,1.536192179
10.42644562,-1.661217093,-9.784252167,2.310270309
10.43120854,-2.094916344,-10.07976532,2.91266346
10.43599807,-2.525026083,-10.64925671,3.073580742
10.44077427,-2.866003275,-11.56511021,2.76909399
10.44553713,-3.474976778,-12.4241333,2.408375978
10.45032666,-4.408775806,-13.16770267,1.794018745
10.45510286,-5.467599869,-13.78684616,0.9846464992
10.45986578,-6.495316982,-14.18345642,0.001794616925
10.46465531,-7.353144169,-14.39223003,-1.183848977
10.46943151,-7.950751305,-14.4753809,-2.448455811
10.47419437,-8.260622025,-14.42692566,-3.348157167
10.4789839,-8.383254051,-14.25344658,-3.881158352
10.4837601,-8.394619942,-13.86401463,-3.919443607
10.48852302,-7.999206066,-13.27956772,-3.547359467
10.4933125,-7.644470215,-12.78784275,-2.782254457
10.49808874,-7.08036232,-12.4743824,-1.49431777
10.50285161,-6.241079807,-12.25603771,-0.2416750938
10.50764114,-5.324628353,-11.93121147,0.4785645306
10.51241734,-4.022335052,-11.66800117,0.471386075
10.51718026,-2.64227438,-11.38983536,-0.1980060786
10.52196974,-1.585843205,-11.07817078,-0.8566305041
10.52674598,-0.4767699242,-11.0123682,-1.515254974
10.53150885,0.366101861,-10.88016415,-1.994417667
10.53629838,1.148554921,-10.95493984,-2.445464849
10.54107458,1.73898387,-11.22413254,-2.606382132
10.5458375,2.070389748,-11.52203941,-2.228316069
10.55062697,2.304886341,-11.83968639,-1.37048912
10.55540317,2.20618248,-11.90728378,-0.4247260094
10.56016609,2.234298229,-11.85464191,0.3912265003
10.56495562,1.999801517,-11.70628643,0.9541380405
10.56973182,1.993819475,-11.56211948,1.58703959
10.57449474,1.866401672,-11.35095215,1.928016901
10.57928421,1.752144337,-11.15832996,2.005185366
10.58406041,1.99800694,-10.93579769,1.864607096
10.58882333,2.298904419,-10.53978539,1.541576028
10.59361286,2.218146563,-10.12582684,0.9080761671
10.59838906,1.679761529,-9.591629982,0.3206382394
10.60315197,0.499501735,-8.896514893,-0.1824527234
10.60794145,-0.7417750359,-8.137989998,-0.4552344978
10.61271765,-1.691127419,-7.436294556,-0.5706881881
10.61748057,-2.11645174,-6.782455921,-0.4007977843
10.6222701,-2.225325108,-6.23330307,-0.0933200866
10.6270463,-2.206780672,-5.621936798,0.2081755698
10.63180916,-2.079362869,-4.879563808,0.4085744619
10.63659869,-2.004587173,-4.118047714,0.5563312769
10.64137489,-2.143969059,-3.391227961,0.7818548083
10.64613781,-2.439482689,-2.665006161,1.05224371
10.65092734,-2.810968399,-1.966900229,1.259821177
10.65570354,-3.150749207,-1.360917926,1.386042476
10.6604664,-3.195016384,-0.8021938205,1.419542074
10.66525593,-3.082553864,-0.3589234054,1.394417405
10.67003213,-2.946162939,-0.04067798331,1.321436286
10.67479505,-2.813361168,0.128614217,1.234696507
10.67958458,-2.547757864,0.1824527234,1.151545882
10.68436078,-2.363510609,0.2356930375,0.9684949517
10.68912364,-2.082952023,0.1501496136,0.903888762
10.69391317,-1.734198213,0.03469592705,1.066002488
10.69868937,-1.510469317,-0.01794617064,0.9978070259
10.70345229,-1.220339537,-0.1615155339,0.9529415965
10.70824177,-0.9349954724,-0.3631108403,0.9032905698
10.71301802,-0.8057830334,-0.5599204898,0.8739784956
10.71779421,-0.7298108935,-0.733400166,0.8159525394
10.72257041,-0.7058826685,-0.8584251404,0.7728816867
10.72734661,-0.7914260626,-0.9499505758,0.7256234884
10.73212281,-0.9912267923,-1.080957651,0.6640082598
10.73689901,-1.295713425,-1.356132269,0.4354937077
10.74167526,-1.652842283,-1.732403636,0.2171486616
10.74645145,-2.118844509,-2.249253273,0.008973085321
10.75122765,-2.274976015,-2.885145903,-0.1914258152
10.75600385,-2.122433662,-3.554538012,-0.537786901
10.76076677,-1.828714728,-4.319643021,-1.113858938
10.76555624,-1.487139225,-5.233701229,-1.801795483
10.77033244,-1.065404296,-6.306882381,-2.66739893
10.77509536,-0.7980063558,-7.519444942,-3.9200418
10.77988489,-0.6472585201,-9.012566566,-5.685945034
10.78466109,-0.2715853751,-10.93220806,-8.335995674
10.78942401,0.679561615,-13.45783234,-12.1106739
10.79421348,3.002992392,-17.14098549,-15.38824272
10.79898968,6.248856544,-22.17069817,-18.70828438
10.8037526,11.86840057,-30.82075119,-27.09094048
10.80854213,21.69153595,-43.64389038,-30.14717293
10.81331833,22.13061905,-52.89035416,-27.12443924
10.81808124,10.00259686,-53.26363373,-21.85424805
10.82287072,-0.4528416991,-44.01358032,-15.08315754
10.82764692,-0.7244270444,-32.56930542,-9.815358162
10.83240984,0.6023930907,-23.77508545,-6.818946362
10.83719937,0.6095715761,-17.37248993,-5.379065514
10.84197557,0.3068794906,-12.17527962,-4.594219685
10.84673843,-0.1447657645,-7.807182312,-3.81296277
10.85152796,-0.87517488,-4.0127635,-2.967100143
10.85630416,-1.777867198,-0.002392822644,-2.19242382
10.86106708,-2.441875458,3.045464993,-1.053440213
10.86585661,-3.021536827,4.970490932,0.1812563092
10.87063281,-3.627519131,5.778068542,1.004387259
10.87539567,-4.69411993,5.842674732,1.719841242
10.8801852,-6.039484501,5.126024246,2.303689957
10.8849614,-6.660421848,3.607180119,2.624328136
10.88972432,-6.046064377,1.560718536,2.39222455
10.89451385,-4.918447018,-0.3487538993,1.380060434
10.89929005,-3.836292982,-2.079362869,0.04187439755
10.90406625,-3.080759048,-3.869792461,-1.031306505
10.90884244,-2.694916487,-5.694319725,-1.953739643
10.91361864,-2.014158487,-7.676773071,-2.891726255
10.91838156,-1.152742267,-9.929018021,-4.074976921
10.92317109,-0.2440679073,-12.64846039,-5.502893925
10.92794729,0.5198407173,-15.90269947,-6.843472958
10.93271015,0.7417750359,-19.55354881,-7.504489899
10.93749968,0.6436693072,-23.34557343,-7.630711555
10.94227588,0.7124629617,-26.70330238,-7.456035137
10.9470388,0.2721835673,-28.53082085,-7.237092018
10.95182828,-0.5647061467,-27.5838604,-6.757929325
10.95660453,-0.9439685345,-24.19861603,-4.699503899
10.96136739,-0.9619147182,-19.53201294,-1.237687469
10.96615692,-1.277767301,-14.77867126,1.726421595
10.97093312,-1.828714728,-10.78205872,3.31525588
10.97569604,-2.222334146,-7.709076405,3.530609846
10.98048552,-2.213959217,-5.468796253,2.982055187
10.98526171,-2.185245275,-3.960719585,2.232503414
10.99002463,-2.756531715,-2.98863554,1.883749604
10.99481416,-3.800998688,-2.639283419,1.668395638
10.99959036,-5.1296134,-2.637488842,1.488335729
11.00435328,-6.367300987,-2.818745136,1.293320656
11.00914276,-7.171887875,-3.177070379,0.9379864931
11.01391895,-7.47697258,-3.625724554,0.6610172391
11.01868187,-7.356733322,-4.174279213,0.5359922647
11.0234714,-6.917650223,-4.645665169,0.5581258535
11.0282476,-6.383452415,-5.015356064,0.6179464459
11.0330238,-6.025127411,-5.264808178,0.6550351977
11.0378,-5.700301647,-5.47597456,0.7537391186
11.04257619,-5.627320766,-5.828317642,0.8979067206
11.04735239,-5.362913609,-6.284748554,1.156331539
11.05212864,-5.221737385,-6.656234264,1.429113269
11.05690484,-5.009374142,-7.04088068,1.649253011
11.06168104,-4.755136967,-7.536194801,1.773081541
11.06645724,-4.486542225,-7.969893932,1.896311998
11.07123343,-4.305285931,-8.315656662,1.852642894
11.07599635,-4.176073551,-8.628518105,1.794616938
11.08078588,-3.903890133,-8.960522652,1.75034976
11.08556208,-3.46959281,-9.416953087,1.690529227
11.09032494,-2.858824968,-10.31186962,1.515254974
11.09511447,-2.175673962,-11.44726372,1.402194023
11.09989067,-1.721037745,-12.52523041,1.213759303
11.10465359,-1.348953724,-13.47338581,0.9146564603
11.10944312,-0.985244751,-14.30549049,0.8458628058
11.11421932,-0.7064808607,-14.88335705,1.066002488
11.11898218,-0.6017948985,-15.15793324,1.555334687
11.12377171,-0.5832505226,-15.19621849,2.236690998
11.12854791,-0.3613162339,-15.12383556,2.801397085
11.13331083,-0.007776673418,-15.06999683,3.169293642
11.13810031,0.6729813814,-14.97248936,3.214159012
11.14287656,1.636690736,-14.77268887,2.997010469
11.14763942,2.593221426,-14.41795254,2.512463808
11.15242895,3.400201082,-13.93400478,1.663011789
11.15720515,3.986442566,-13.32503128,0.5557330847
11.16196807,4.363312244,-12.75015545,-0.5359922647
11.16675755,4.579264164,-12.1854496,-1.53080833
11.1715338,4.530211449,-11.73260784,-2.288734913
11.17629666,4.245465755,-11.39103222,-2.801397085
11.18108619,3.742972851,-11.16610718,-3.139383316
11.18586239,3.146561861,-11.04168034,-3.352344513
11.19062531,2.444866419,-10.91306591,-3.598805189
11.19541479,1.859223247,-10.8179512,-3.720839262
11.20019098,1.311864972,-10.64626598,-3.617349625
11.2049539,0.8985049129,-10.38724327,-3.375076294
11.20974343,0.5670989752,-10.00798035,-2.941377163
11.21451963,0.2679961324,-9.464211464,-2.523231506
11.2192825,0.05024927482,-8.790034294,-1.984846354
11.22407203,-0.1573280841,-8.063812256,-1.287936807
11.22884822,-0.2679961324,-7.326822758,-0.4007977843
11.23361114,-0.4366901219,-6.639484406,0.3822534084
11.23840067,-0.7639086246,-6.047261238,1.012163997
11.24317687,-1.113260746,-5.60578537,1.57028985
11.24793974,-1.610967875,-5.154139996,2.134397745
11.25272927,-2.285145521,-4.712664127,2.669791937
11.25750546,-3.059223652,-4.252045631,3.157927752
11.26226838,-3.86620307,-3.965505362,3.493520975
11.26705791,-4.461417675,-3.928416491,3.482155085
11.27183411,-4.772484779,-4.140779495,3.046661377
11.27659697,-4.618745804,-4.621737003,2.236092806
11.28138651,-3.885345697,-5.24566555,1.253240824
11.2861627,-2.889333248,-5.888736725,0.4372883439
11.29092562,-1.901695848,-6.497709751,-0.2153540403
11.29571515,-0.9182456732,-7.006184578,-0.6903293133
11.30049135,-0.1004985496,-7.393822193,-1.049252748
11.30525421,0.3978067636,-7.739584923,-1.315454245
11.31004375,0.6263213158,-8.109873772,-1.628315806
11.31481994,0.6867401004,-8.480163574,-1.993221283
11.31958286,0.7244270444,-8.870791435,-2.347957134
11.32437234,0.7896314859,-9.226723671,-2.684148788
11.32914854,0.9511470199,-9.58265686,-2.982055187
11.33391145,1.135394335,-9.938589096,-3.318845034
11.33870099,1.348953724,-10.27537823,-3.607778311
11.34347718,1.485942841,-10.5732851,-3.900899172
11.3482401,1.63788712,-10.81376362,-4.136591911
11.35302958,1.741974831,-10.99621677,-4.28614378
11.35780578,1.827518344,-11.11226845,-4.38724041
11.36256869,1.899302959,-11.21336555,-4.396811485
11.36735822,1.871785522,-11.30010509,-4.28614378
11.37213442,1.840080619,-11.34855938,-4.051048756
11.37689729,1.804188251,-11.37727356,-3.70050025
11.38168682,1.754537225,-11.39222908,-3.244069338
11.38646302,1.648654819,-11.39761257,-2.672782898
11.39123927,1.537986755,-11.39821053,-2.009970903
11.39601546,1.49431777,-11.35513973,-1.333400369
11.40079166,1.545763373,-11.28335476,-0.680758059
11.40555453,1.673181176,-11.21097183,-0.06221338734
11.41034406,1.876571178,-11.13858986,0.4929214716
11.41512026,2.117049932,-11.09910774,1.000798106
11.41988317,2.343171597,-11.10867882,1.417149186
11.4246727,2.52143693,-11.11346436,1.771286964
11.4294489,2.675175667,-11.12303638,2.024327993
11.43421177,2.723032236,-11.09312534,2.163709879
11.4390013,2.666202545,-11.00219822,2.202593327
11.4437775,2.43708992,-10.86760235,2.140978098
11.44854041,2.169692039,-10.69950676,2.046461582
11.45332994,1.844866276,-10.49791145,1.913061738
11.45810614,1.557129383,-10.29153061,1.770688772
11.46288234,1.284945726,-10.0899353,1.613958836
11.46765854,0.9882357717,-9.984650612,1.394417405
11.47243474,0.6107679605,-9.979865074,1.142572761
11.47719765,0.262014091,-10.10189915,0.8703892231
11.48198713,-0.06221338734,-10.328619,0.6227321029
11.48676333,-0.4809573591,-10.53200912,0.4235295951
11.49152625,-1.005583763,-10.68754196,0.2392822653
11.49631578,-1.571486235,-10.85683441,0.06939185411
11.50109197,-2.215155602,-10.97408295,-0.09990034252
11.50585489,-2.767299414,-11.1003046,-0.2937189937
11.51064437,-3.120240688,-11.26062298,-0.4887340367
11.51542062,-3.306880951,-11.38624668,-0.7465606928
11.52018348,-3.151347399,-11.53998566,-1.044467092
11.52497302,-2.629113913,-11.73619652,-1.398006678
11.52974921,-1.870589137,-11.9216404,-1.809572101
11.53451213,-0.9110672474,-12.12144089,-2.274976015
11.53930161,0.07716853172,-12.30748367,-2.558525562
11.54407781,0.9379864931,-12.51685524,-2.788236618
11.54884072,1.652244091,-12.83809185,-2.863610506
11.55363026,2.16670084,-13.15932846,-2.837289333
11.55840645,2.577069998,-13.38006592,-2.738585472
11.56316932,2.964707375,-13.5092783,-2.544168711
11.56795885,3.294916868,-13.56192017,-2.185245275
11.57273505,3.668197155,-13.61874962,-1.832303882
11.57749796,4.051646709,-13.6229372,-1.484148264
11.5822875,4.362713814,-13.54038525,-1.067797065
11.58706369,4.683351994,-13.43869019,-0.6472585201
11.59182656,4.898705959,-13.28854084,-0.3224328458
11.59661609,4.942375183,-13.07199001,-0.1351944804
11.60139229,4.76949358,-12.77827072,-0.1920240223
11.6061552,4.511667252,-12.42772293,-0.2009970993
11.61094474,4.244867325,-12.10050392,-0.1417747438
11.61572093,4.124628067,-11.97547913,-0.2667997181
11.62049713,3.884747505,-11.88933754,-0.5964110494
11.62527333,3.539582968,-11.69252777,-0.8829515576
11.63004953,3.056830883,-11.36112213,-1.091127157
11.63481244,2.569293261,-10.98604679,-1.199402332
11.63960192,2.183450699,-10.60678482,-1.121037364
11.64437817,1.735992789,-10.16949654,-0.9607182741
11.64914104,1.168893814,-9.588040352,-0.747158885
11.65393057,0.9056833982,-9.260822296,-0.8608179688
11.65870677,0.6717849374,-9.165108681,-0.9463613629
11.66346968,0.7639086246,-9.073583603,-0.6448656917
11.66825916,0.5204389095,-9.089137077,-0.004785645287
11.67303541,-0.327816695,-9.327222824,0.5030909777
11.67779828,-1.276570916,-9.854242325,0.6526423693
11.68258781,-2.040479422,-10.5601244,0.628115952
11.68736401,-2.71824646,-11.30369377,0.6610172391
11.69212692,-3.376272678,-11.97966671,0.8422735929
11.6969164,-4.115654945,-12.54078388,0.9960124493
11.7016926,-5.099104881,-12.9379921,0.9918249846
11.70645552,-6.084349632,-13.0893383,0.8715856671
11.71124505,-6.851847649,-13.14915848,0.6311069727
11.71602124,-7.514659405,-13.2903347,0.2793620527
11.72078411,-7.993224144,-13.31007576,-0.2554338276
11.72557364,-8.063812256,-13.25264835,-0.8691928387
11.73034984,-7.761120319,-13.28016567,-1.120439172
11.73511276,-7.315456867,-12.89432335,-1.228116274
11.73990229,-6.554539204,-12.57428265,-1.026520967
11.74467849,-5.594419479,-12.35115242,-0.3457628787
11.74945468,-4.303491592,-12.36730385,-0.05922235921
11.75423088,-2.900699139,-12.34457207,-0.162113741
11.75900708,-1.856830359,-12.01376438,-0.456430912
11.76377,-1.072582722,-11.52503014,-1.132403374
11.76855947,-0.328414917,-11.34018517,-1.530210137
11.77333572,0.1375873089,-11.34377384,-1.532602906
11.77809859,0.6789634228,-11.43888855,-1.774876237
11.78288812,1.08335042,-11.67398357,-1.863410592
11.78766432,1.436291814,-12.00060368,-1.816750646
11.79242724,1.616949916,-12.38106251,-1.405185103
11.79721671,1.836491346,-12.76152134,-0.6622136831
11.80199296,2.184647083,-13.05464172,0.109471634
11.80675583,2.770290375,-13.26521015,0.7968099117
11.81154536,3.44147706,-13.39920902,0.9182456732
11.81632156,4.206582069,-13.50808239,0.6843472719
11.82108447,5.10508728,-13.54457283,0.4827519655
11.82587395,5.327619553,-13.17248821,0.4815555513
11.83065015,4.658825874,-12.58624744,0.4366901219
11.8354264,2.695514679,-11.57946682,0.4701896608
11.8402026,0.5784648657,-10.36092186,0.2979064286
11.8449788,-0.7728816867,-9.183652878,0.1603191197
11.84974171,-1.451845169,-8.134998322,0.1483550072
11.85453119,-1.796411633,-7.259225845,0.2841476798
11.85930739,-2.117648125,-6.387639999,0.3762713671
11.86407031,-2.196012974,-5.52622366,0.4528416991
11.86885984,-2.136192322,-4.68275404,0.4953143001
11.87363604,-2.133201361,-4.0127635,0.5808576941
11.8783989,-2.224128723,-3.468994617,0.7920243144
11.88318843,-2.46221447,-3.006581545,0.9661021233
11.88796463,-2.815155745,-2.588435888,1.073180914
