Time (s),Acceleration x (m/s^2),Acceleration y (m/s^2),Acceleration z (m/s^2)
6.00019745,1.0863415,-8.140382767,-0.6891329288
6.004952398,1.253839016,-7.989634991,-0.418743968
6.009707294,1.557727575,-7.731209755,-0.1244267747
6.014462294,1.883151412,-7.520641804,0.07178468257
6.019217242,2.239681959,-7.334001541,-0.04067798331
6.023972189,2.510071039,-7.259823799,-0.342173636
6.028727137,2.82831645,-7.247859955,-0.7298108935
6.033482085,3.139383316,-7.245467186,-1.115055323
6.038237033,3.467200041,-7.221538544,-1.392622828
6.042991981,3.670589924,-7.188039303,-1.540977836
6.047746929,3.842873096,-7.06600523,-1.576870084
6.052501877,3.907479286,-6.876972198,-1.672582984
6.057256825,3.888336897,-6.60419035,-1.828116536
6.062011773,3.735196114,-6.269195557,-2.04586339
6.066766721,3.6299119,-5.953342915,-2.132004976
6.071521669,3.543770313,-5.702096462,-1.926222205
6.076276617,3.486342669,-5.424529076,-1.552941918
6.081031564,3.43609333,-5.252245903,-1.1820544
6.085786512,3.455235958,-5.158925533,-1.002592683
6.09054146,3.577269793,-5.168497086,-1.004985452
6.095296408,3.742374659,-5.350351334,-1.062413216
6.100051356,4.019941807,-5.706882,-1.196411371
6.104806304,4.491328239,-6.214160442,-1.304088354
6.109561252,4.979464054,-6.848258495,-1.40697968
6.1143162,5.534598827,-7.537391186,-1.440479279
6.119071148,6.051448345,-8.26241684,-1.416550994
6.123826096,6.391229153,-8.927620888,-1.330409408
6.128581044,6.659225464,-9.49232769,-1.208375454
6.133335992,6.793223381,-9.961320877,-1.064806104
6.138090939,6.82433033,-10.3657074,-0.9116654396
6.142845887,6.671189308,-10.66481018,-0.7058826685
6.147600835,6.42472887,-10.75813103,-0.5072783828
6.152355783,6.065805435,-10.74138069,-0.366101861
6.157110731,5.764309883,-10.69113159,-0.1579262912
6.161865731,5.477170944,-10.71027374,0.09571290761
6.166620679,5.398207664,-10.77488041,0.3684946895
6.171375627,5.458028316,-10.96869946,0.7178468108
6.176130575,5.570491314,-11.32522964,0.9834501147
6.180885523,5.678168297,-11.69133186,1.174875975
6.185640471,5.891129494,-12.19382381,1.306481123
6.190395419,6.130411625,-12.7250309,1.435693622
6.195150367,6.343372822,-13.11745358,1.593619823
6.199905314,6.551548481,-13.50030518,1.753939033
6.204660262,6.716653347,-13.82094383,1.938186288
6.20941521,6.697510719,-14.12483215,2.120040894
6.214170158,6.527620316,-14.42393494,2.457428932
6.218925106,6.293123722,-14.67518139,2.756531715
6.223680054,6.116054535,-14.97667694,2.883351326
6.228435002,5.666203976,-15.20878029,3.122633457
6.23318995,5.034498692,-15.43131351,3.40498662
6.237944898,4.407579422,-15.54138279,3.541377544
6.242699846,3.620340586,-15.61556053,3.610769272
6.247454794,3.067598581,-15.72802353,3.512663603
6.252209742,2.670390129,-15.85245037,3.160918713
6.256964689,2.179861546,-15.98405552,2.591426849
6.261719637,1.605584025,-16.11087418,2.053041935
6.266474585,0.9762716293,-16.31904984,1.426122308
6.271229585,0.4307080805,-16.50090408,0.9260223508
6.275984533,-0.2488535494,-16.73540115,0.6819544435
6.280739481,-0.8327022791,-16.85025787,0.3637090325
6.285494429,-1.574477315,-17.00100517,0.2632105052
6.290249377,-2.256431818,-16.99382591,0.3302095234
6.295004325,-2.98863554,-16.8909359,0.35174492
6.299759273,-3.617947817,-16.58226013,0.4067798555
6.304514221,-4.134797573,-16.14198112,0.4067798555
6.309269169,-4.486542225,-15.60120392,0.4067798555
6.314024117,-4.285545349,-14.98146248,-0.01914258115
6.318779064,-3.242274761,-14.20858097,-0.4594219327
6.323534012,-1.658226132,-13.41894913,-0.8494520187
6.32828896,-0.2273181528,-12.64367485,-1.148554921
6.333043908,0.8518448472,-11.84207916,-1.282552958
6.337798856,1.557727575,-11.02612686,-1.26341033
6.342553804,2.017149448,-10.28435135,-1.213161111
6.347308752,2.244467735,-9.628718376,-1.127019525
6.3520637,2.304288149,-9.061619759,-1.033699393
6.356818648,2.179861546,-8.602197647,-0.9643075466
6.361573596,1.971685886,-8.23370266,-0.8757730722
6.366328596,1.718046665,-7.96331358,-0.7130611539
6.371083544,1.464407444,-7.702496052,-0.5455635786
6.375838492,1.26341033,-7.484749317,-0.409172684
6.380593439,1.048056364,-7.314858913,-0.3541377485
6.385348387,0.9355936646,-7.149754047,-0.2679961324
6.390103335,0.8039883971,-7.027719975,-0.2751746178
6.394858283,0.7489534616,-6.95114994,-0.2392822653
6.399613231,0.6819544435,-6.881757736,-0.2632105052
6.404368179,0.6556333899,-6.817151546,-0.3062812984
6.409123127,0.6556333899,-6.776473522,-0.4115654826
6.413878075,0.6963114142,-6.738188744,-0.5335994363
6.418633023,0.7202396393,-6.740581512,-0.6604190469
6.423387971,0.7106683254,-6.709474564,-0.7226324677
6.428142919,0.6699903607,-6.68076086,-0.7345965505
6.432897867,0.6197410822,-6.652047157,-0.6819544435
6.437652814,0.5934200287,-6.668796539,-0.5934200287
6.442407762,0.457029134,-6.606583118,-0.4857429862
6.447162762,0.3158525825,-6.546762943,-0.337387979
6.45191771,0.2967100143,-6.443871498,-0.1387837082
6.456672658,0.3206382394,-6.324230194,0.02632104978
6.461427606,0.3876372576,-6.221338749,0.2201396823
6.466182554,0.500099957,-6.092126369,0.433100909
6.470937502,0.6556333899,-5.931807518,0.6484549642
6.47569245,0.7513462901,-5.740381718,0.7824530005
6.480447398,0.866201818,-5.560919762,0.8422735929
6.485202346,0.8757730722,-5.402993679,0.7896314859
6.489957294,0.8039883971,-5.257031441,0.7441678643
6.494712242,0.7345965505,-5.156532764,0.7250252366
6.499467189,0.6221339107,-5.039284706,0.6628118753
6.504222137,0.5096712112,-4.92442894,0.6604190469
6.508977085,0.4163511395,-4.831109047,0.6843472719
6.513732033,0.3852444589,-4.735395908,0.7585247755
6.518486981,0.409172684,-4.783252239,0.7920243144
6.523241929,0.5670989752,-4.919643402,0.8518448472
6.527996929,0.8063812256,-5.125426292,0.8877372146
6.532751877,1.122233868,-5.398207664,0.9188438654
6.537506825,1.531406522,-5.723631859,0.9619147182
6.542261773,1.976471543,-6.113661766,0.9858429432
6.547016721,2.476571321,-6.544369698,1.026520967
6.551771669,3.046063185,-7.058826923,1.067198873
6.556526617,3.682554007,-7.5924263,1.105484009
6.561281564,4.285545349,-8.140382767,1.095912814
6.566036512,4.878965378,-8.764909744,1.031306505
6.57079146,5.352744102,-9.339186668,0.9308080077
6.575546408,5.711667538,-9.887143135,0.7776673436
6.580301356,6.022734642,-10.38963604,0.6053841114
6.585056304,6.185446739,-10.75095177,0.4211367965
6.589811252,6.257231236,-11.01655579,0.2368894368
6.5945662,6.264409542,-11.16012478,0.1052841991
6.5993212,6.185446739,-11.29890823,-0.05742774159
6.604076148,6.087340832,-11.34197903,-0.1627119333
6.608831096,5.91266489,-11.27498055,-0.2632105052
6.613586044,5.611168861,-11.09551907,-0.3182454109
6.618340992,5.268995285,-10.71984577,-0.3589234054
6.623095939,4.867001057,-10.26042366,-0.409172684
6.627850887,4.529613495,-9.760323524,-0.4881358147
6.632605835,4.292723656,-9.291330338,-0.5982056856
6.637360783,4.402793884,-8.685946465,-0.5599204898
6.642115731,4.505684853,-8.226524353,-0.5335994363
6.646870679,4.790431023,-7.956135273,-0.4378865361
6.651625627,4.93878603,-7.731209755,-0.433100909
6.656380575,5.010570526,-7.501499176,-0.4522434771
6.661135523,5.048855782,-7.360322475,-0.4977070987
6.665890523,4.986642361,-7.211967468,-0.5407779217
6.670645471,4.831109047,-7.05164814,-0.6149554253
6.675400419,4.709074974,-6.896114826,-0.6652047038
6.680155367,4.608576298,-6.766902447,-0.7178468108
6.684910314,4.656432629,-6.769295216,-0.732203722
6.689665262,4.917250633,-7.01575613,-0.7298108935
6.69442021,5.343173027,-7.570890903,-0.6436693072
6.699175158,5.871986866,-8.463413239,-0.5359922647
6.703930106,6.434299946,-9.573683739,-0.4833501875
6.708685054,6.577869415,-10.55474091,-0.6125625968
6.713440002,6.436692715,-11.36590767,-0.8470591903
6.71819495,6.130411625,-12.01436234,-1.016949654
6.722949898,5.747560024,-12.63888931,-1.115055323
6.727704898,5.388636589,-13.23470211,-1.148554921
6.732459846,5.11585474,-13.91426373,-1.146162033
6.737214794,4.890929699,-14.58664703,-1.05523479
6.741969742,4.706682205,-15.27577972,-0.8590233326
6.746724689,4.517649174,-15.94337749,-0.6747759581
6.751479637,4.323830605,-16.48176193,-0.5742774606
6.756234585,3.907479286,-16.90768433,-0.5312066078
6.760989533,3.385843992,-17.06321907,-0.6101697683
6.765744481,2.711068153,-17.0297184,-0.7178468108
6.770499429,2.01475668,-16.83589935,-0.7537391186
6.775254377,1.414158225,-16.32144356,-0.5527420044
6.780009325,0.8255237937,-15.59881115,-0.1818545163
6.784764273,0.4163511395,-14.85703564,0.2344966233
6.789519273,0.05264209956,-14.15833187,0.6173482537
6.794274221,-0.02871387079,-13.61994648,0.9332008362
6.799029169,0.009571290575,-13.2083807,1.107876897
6.803784117,0.08853443712,-12.99063396,1.189232826
6.808539064,0.1962114573,-12.97149181,1.205982566
6.813294012,0.2249253243,-13.06241894,1.203589797
6.81804896,0.2632105052,-13.16052437,1.225125194
6.822803908,0.2225325108,-13.24905872,1.170090318
6.827558856,0.2009970993,-13.31845093,1.107876897
6.832313804,0.2656033039,-13.2586298,1.141376376
6.837068752,0.3613162339,-13.02174091,1.284945726
6.8418237,0.6149554253,-12.64128208,1.493121386
6.846578648,0.9786644578,-12.21057415,1.706082582
6.851333648,1.330409408,-11.78225899,1.940579176
6.856088596,1.677368641,-11.40897846,2.163111687
6.860843544,1.880758643,-11.10509014,2.431107759
6.865598492,1.966900229,-10.90648556,2.663211584
6.870353439,1.919043779,-10.8179512,2.821137905
6.875108387,1.775474429,-10.85623646,2.981456995
6.879863335,1.593619823,-10.9615202,3.172882795
6.884618283,1.35912323,-11.13619614,3.378665686
6.889373231,1.071984529,-11.31565857,3.56530571
6.894128179,0.8327022791,-11.44726372,3.704089403
6.898883127,0.6125625968,-11.57169056,3.732803345
6.903638075,0.4450650215,-11.62193966,3.718446493
6.908393075,0.3014956415,-11.68175983,3.625126362
6.913148023,0.3182454109,-11.69372463,3.443271875
6.917902971,0.3637090325,-11.6961174,3.27577424
6.922657919,0.4666004181,-11.73200989,2.98863554
6.927412867,0.4833501875,-11.70329571,2.545963287
6.932167814,0.4259224236,-11.56211948,2.108076811
6.936922762,0.4283152521,-11.31087303,1.763510346
6.94167771,0.4642075896,-11.01416302,1.557727575
6.946432658,0.5431707501,-10.63370419,1.476371527
6.951187606,0.5766702294,-10.22931671,1.488335729
6.955942554,0.6580262184,-9.796216011,1.615155339
6.960697502,0.7585247755,-9.363115311,1.756331801
6.96545245,0.8590233326,-9.016156197,1.890329838
6.97020745,0.9523434043,-8.671588898,1.969292998
6.974962398,1.048056364,-8.343772888,2.033899307
6.979717346,1.095912814,-8.073383331,2.005185366
6.984472294,1.203589797,-7.771887779,1.990828395
6.989227242,1.253839016,-7.508677483,1.964507341
6.993982189,1.32801652,-7.250252724,1.942971945
6.998737137,1.416550994,-7.056434155,1.928615093
7.003492085,1.536192179,-6.881757736,1.931007862
7.008247033,1.639083505,-6.771687984,1.935793519
7.013001981,1.780260086,-6.690331936,1.916650891
7.017756929,1.883151412,-6.683153629,1.8855443
7.022511877,1.938186288,-6.673582554,1.940579176
7.027266877,2.041077614,-6.817151546,1.926222205
7.032021825,2.172683001,-7.039684296,1.842473388
7.036776773,2.354537487,-7.338787079,1.64626193
7.041531721,2.524427891,-7.633104324,1.349551916
7.046286669,2.648854733,-7.953742504,1.048056364
7.051041617,2.81395936,-8.231309891,0.784845829
7.055796564,2.964707375,-8.516056061,0.5192425251
7.060551512,3.105883837,-8.776873589,0.313459754
7.06530646,3.215953588,-8.937192917,0.1435693651
7.070061408,3.347558975,-9.049654961,-0.01196411345
7.074816356,3.431307554,-9.071190834,-0.1459621787
7.079571356,3.438486099,-9.020941734,-0.2679961324
7.084326304,3.43609333,-8.90130043,-0.4211367965
7.089081252,3.464807272,-8.729017258,-0.5742774606
7.0938362,3.493520975,-8.504091263,-0.7202396393
7.098591148,3.433700562,-8.236095428,-0.9140582681
7.103346096,3.414557934,-7.91306448,-1.100698471
7.108101044,3.419343472,-7.549355507,-1.292124271
7.112855992,3.407379389,-7.267002583,-1.641476393
7.117610939,3.419343472,-7.003791809,-2.098505497
7.122365887,3.43609333,-6.74536705,-2.90967226
7.127120835,3.424129248,-6.501298904,-3.830909014
7.131875783,3.43609333,-6.31226635,-4.457828522
7.136630731,3.476771355,-6.161518097,-4.467400074
7.141385731,3.486342669,-6.068198204,-3.902693748
7.146140679,3.503092289,-6.094519138,-3.117847919
7.150895627,3.510270834,-6.051448345,-2.455035925
7.155650575,3.527020693,-5.958128452,-1.904686809
7.160405523,3.400201082,-5.807380676,-1.497906923
7.165160471,3.299702406,-5.728417397,-1.146162033
7.169915419,3.251846075,-5.613562107,-0.8446664214
7.174670367,3.215953588,-5.580062389,-0.5264210105
7.179425314,3.242274761,-5.587240696,-0.1962114573
7.184180262,3.342773199,-5.659025669,-0.04785645381
7.18893521,3.493520975,-5.802595139,-0.03349951655
7.19369021,3.627519131,-5.903093338,-0.01196411345
7.198445158,3.749552965,-6.01316309,0.002392822644
7.203200106,3.795016766,-6.128018856,-0.0143569354
7.207955054,3.840480328,-6.221338749,-0.02871387079
7.212710002,3.890729666,-6.357729912,-0.06221338734
7.21746495,3.909872293,-6.534798622,-0.06699903309
7.222219898,3.859622955,-6.738188744,-0.06939185411
7.226974846,3.804588079,-7.027719975,-0.05264209956
7.231729794,3.708875179,-7.353144169,-0.03110669367
7.236484742,3.632304668,-7.776673794,-0.06939185411
7.241239689,3.608376503,-8.269595146,-0.1004985496
7.245994637,3.610769272,-8.827122688,-0.1531406492
7.250749637,3.704089403,-9.396614075,-0.1818545163
7.255504585,3.783052683,-9.992427826,-0.2368894368
7.260259533,3.778266907,-10.47817039,-0.2321037948
7.265014481,3.716053486,-10.82034397,-0.2464607358
7.269769429,3.522234917,-11.02851963,-0.2249253243
7.274524377,3.242274761,-11.04526901,-0.1220339537
7.279279325,2.952743053,-11.00219822,0.007178467698
7.284034273,2.66799736,-10.89691448,0.2057827413
7.288789221,2.522035122,-10.7605238,0.4259224236
7.293544169,2.388036966,-10.73180962,0.6987041831
7.298299117,2.388036966,-10.74138069,0.9906286001
7.303054117,2.500499725,-10.83230782,1.289731383
7.307809064,2.624926329,-11.02373409,1.64626193
7.312564012,2.787638426,-11.28694439,1.993221283
7.31731896,3.134597778,-11.60519028,2.258824587
7.322073908,3.495913982,-12.00479126,2.474178553
7.326828856,3.8668015,-12.42832088,2.646461725
7.331583804,4.096512318,-12.90688515,2.768495798
7.336338752,4.285545349,-13.50269794,2.998206854
7.3410937,4.52482748,-14.14875984,3.280559778
7.345848648,4.721039295,-14.79721546,3.672982693
7.350603648,5.00339222,-15.47199154,4.022335052
7.355358596,5.206781864,-16.19940948,4.299902439
7.360113544,5.38624382,-16.82632828,4.508078098
7.364868492,5.50109911,-17.36471367,4.694717884
7.369623439,5.606383324,-17.77388573,4.785645485
7.374378387,5.690132141,-18.13759613,4.699503899
7.379133335,5.639883041,-18.59462547,4.52482748
7.383888283,5.536991596,-19.03011894,4.273581028
7.388643231,5.137390137,-19.44407654,3.984049797
7.393398179,4.670789719,-19.62593079,3.512663603
7.398153127,4.084548473,-19.47757721,2.940778971
7.402908075,3.335594654,-18.97986984,2.261217356
7.407663023,2.474178553,-18.15434456,1.452443361
7.412418023,1.562513232,-17.14457512,0.2249253243
7.417172971,0.5312066078,-16.14198112,-1.517049551
7.421927919,-0.5335994363,-15.19442368,-3.306880951
7.426682867,-1.24666059,-14.19422436,-4.400400639
7.431437814,-1.495514154,-13.28734398,-4.570291042
7.436192762,-1.280160069,-12.5120697,-3.950550079
7.44094771,-0.8566305041,-11.84207916,-2.959921598
7.445702658,-0.5527420044,-11.22951698,-2.033899307
7.450457606,-0.500099957,-10.63131142,-1.727617979
7.455212554,-0.8398807645,-10.04506969,-2.23728919
7.459967502,-1.35912323,-9.449256897,-3.218346357
7.464722502,-1.749153376,-8.898907661,-4.316651821
7.46947745,-1.871187329,-8.41077137,-5.228317261
7.474232398,-1.758724689,-7.980063438,-5.546562672
7.478987346,-1.469193101,-7.649854183,-5.216353416
7.483742294,-1.208375454,-7.362715244,-4.591826439
7.488497242,-0.9667003751,-7.183253765,-3.828516245
7.493252189,-0.7441678643,-7.111468792,-3.113062143
7.498007137,-0.5599204898,-7.113861561,-2.459821701
7.502762085,-0.3302095234,-7.204789162,-1.835294962
7.507517033,-0.1076770201,-7.367500782,-1.308874011
7.512271981,0.05742774159,-7.551748276,-0.8327022791
7.517026929,0.3637090325,-7.817351341,-0.5120640397
7.521781877,0.6963114142,-8.080561638,-0.3565305769
7.526536877,1.057627559,-8.334200859,-0.2416750938
7.531291825,1.40697968,-8.523234367,-0.06221338734
7.536046773,1.730010748,-8.681160927,0.2368894368
7.540801721,1.983649969,-8.71705246,0.6628118753
7.545556669,2.120040894,-8.697910309,1.117448211
7.550311617,2.194218397,-8.592626572,1.50269258
7.555066564,2.199003935,-8.374878883,1.777867198
7.559821512,2.151147604,-8.106883049,1.887937069
7.56457646,2.053041935,-7.79820919,1.818545222
7.569331408,1.931007862,-7.487142086,1.725225091
7.574086356,1.782652855,-7.154539585,1.584048629
7.578841356,1.586441398,-6.857829571,1.402194023
7.583596304,1.435693622,-6.611369133,1.239482164
7.588351252,1.31126678,-6.386443615,1.074377418
7.5931062,1.170090318,-6.185446739,0.9834501147
7.597861148,1.064806104,-6.01316309,0.9571290612
7.602616096,1.009771109,-5.891129494,0.9308080077
7.607371044,1.05523479,-5.77148819,0.8638089895
7.612125992,1.00737834,-5.618347645,0.7704889178
7.616880939,1.021735311,-5.510670662,0.6173482537
7.621635887,1.028913736,-5.393422127,0.5742774606
7.626390835,1.043270707,-5.257031441,0.5982056856
7.631145783,0.9571290612,-5.11585474,0.6197410822
7.635900731,0.9020941257,-4.98903513,0.6245267391
7.640655731,0.8087740541,-4.869394302,0.6484549642
7.645410679,0.6939185858,-4.831109047,0.6412764788
7.650165627,0.5575276613,-4.835894585,0.6412764788
7.654920575,0.4761717021,-4.950749874,0.7345965505
7.659675523,0.4235295951,-5.213960648,0.8446664214
7.664430471,0.4785645306,-5.565705299,0.9308080077
7.669185419,0.6723831892,-6.01316309,1.036092162
7.673940367,0.9571290612,-6.522834301,1.10309124
7.678695314,1.308874011,-7.030112743,1.170090318
7.683450262,1.703689694,-7.57806921,1.256231904
7.68820521,2.179861546,-8.149953842,1.385444283
7.692960158,2.70149684,-8.690732002,1.485942841
7.697715158,3.249453068,-9.250652313,1.596012712
7.702470106,3.816552162,-9.743574142,1.706082582
7.707225054,4.364508629,-10.22453117,1.682154298
7.711980002,4.895715237,-10.66241741,1.674975872
7.71673495,5.32163763,-11.04048347,1.619940877
7.721489898,5.599205017,-11.37308598,1.529013634
7.726244846,5.809773445,-11.60997581,1.485942841
7.730999794,5.941378593,-11.80857944,1.404586911
7.735754742,5.929414749,-11.87557888,1.325623751
7.740509689,5.819344521,-11.86361504,1.232303619
7.745264637,5.64227581,-11.73440266,1.148554921
7.750019585,5.467599869,-11.50229836,1.136590719
7.754774585,5.247459888,-11.23908806,1.213161111
7.759529533,4.93878603,-10.94716358,1.249053478
7.764284481,4.66839695,-10.61216831,1.170090318
7.769039429,4.409972191,-10.26999474,0.9451649189
7.773794377,4.292723656,-9.978070259,0.7537391186
7.778549325,4.175475597,-9.822537422,0.6197410822
7.783304273,4.084548473,-9.69811058,0.4546363056
7.788059221,4.053441525,-9.6693964,0.2775674164
7.792814169,4.029513359,-9.643074989,0.05982056633
7.797569117,4.094119549,-9.667003632,-0.08614161611
7.802324064,4.113262177,-9.659825325,-0.2201396823
7.807079012,4.161118507,-9.681360245,-0.3493520916
7.81183396,4.235296249,-9.678967476,-0.4259224236
7.81658896,4.290330887,-9.731609344,-0.4953143001
7.821343908,4.393222332,-9.722038269,-0.5359922647
7.826098856,4.476971149,-9.695717812,-0.5647061467
7.830853804,4.572684288,-9.69811058,-0.6005984545
7.835608752,4.656432629,-9.69811058,-0.5862415433
7.8403637,4.764110088,-9.688538551,-0.6197410822
7.845118648,4.926821709,-9.7196455,-0.679561615
7.849873596,5.070391178,-9.844072342,-0.7010970116
7.854628544,5.249852657,-10.04985523,-0.7752745152
7.859383492,5.481956482,-10.29631615,-0.8207381964
7.864138439,5.644668579,-10.61216831,-0.8422735929
7.868893387,5.735595703,-11.00698376,-0.7992027402
7.873648387,5.88395071,-11.43529987,-0.6628118753
7.878403283,6.053841114,-11.90668583,-0.4283152521
7.883158283,6.288337708,-12.35414314,-0.2033899277
7.887913231,6.496513367,-12.83510113,-0.09810572863
