Time (s),Acceleration x (m/s^2),Acceleration y (m/s^2),Acceleration z (m/s^2)
6.002875557,0.15512587564334848,-2.505397050365799,-1.1285322872113057
6.007875523,1.2095833764414878,-3.4572557877276937,-2.4441561019367146
6.012875489,2.2627835397440705,-4.474521744907689,-3.886277311828239
6.017875455,3.312185844158073,-5.599092164461585,-5.4305872176327865
6.022875455,4.354164099605713,-6.865595624220324,-7.046665601880809
6.027875455,5.383441545996485,-8.29866658718998,-8.698331322615847
6.032875488,6.3926613288421095,-9.910764449285479,-10.344265811125807
6.037875521,7.372130515730338,-11.700665391630674,-11.938916086853585
6.042875554,8.309763937961531,-13.652719701331272,-13.433670201001815
6.047875554,9.191240377619728,-15.73692603234999,-14.77828319088232
6.052875554,10.000368821940313,-17.9098293244071,-15.922516432485004
6.05787552,10.719647588950767,-20.11620299736292,-16.817938552317695
6.06287552,11.330985026985644,-22.291430951777834,-17.419822679025785
6.06787552,11.81653814181401,-24.36446329387296,-17.68906368460618
6.072875553,12.15961587395903,-26.26118419748993,-17.594031114771106
6.077875553,12.345587865836272,-27.908003825932077,-17.112269676234902
6.082875553,12.362738368093627,-29.235471631261674,-16.23196018832816
6.087875519,12.203008896620346,-30.181707530326676,-14.953060015378052
6.092875485,11.862582029100883,-30.69546056746372,-13.28805265387219
6.097875451,11.342271247780952,-30.738630157594056,-11.262250426377285
6.102875451,10.647696451680702,-30.288120226448456,-8.913611254681957
6.107875484,9.789239953525929,-29.33693839551035,-6.292049596339941
6.112875517,8.781791851880273,-27.894497578952095,-3.458242316359863
6.11787555,7.644305453809597,-25.986122937833425,-0.48195199750713325
6.12287555,6.399192283801107,-23.65181039088974,2.5600876857570256
6.12787555,5.071591997914653,-20.944321573553616,5.586658177666557
6.132875516,3.6885554100055646,-17.92673250977844,8.514826989212725
6.137875482,2.2781791879739197,-14.669578000405947,11.262898070658009
6.142875482,0.8687290335442301,-11.247749908969045,13.753420530829636
6.147875515,-0.5122151548610125,-7.7373146230971095,15.916122242171442
6.152875548,-1.8385628815452901,-4.212413014092015,17.690627270978904
6.157875548,-3.0864406270990714,-0.742395810260061,19.02881631538091
6.162875548,-4.234822663311714,2.610670617729637,19.896701532969406
6.167875548,-5.266047732466305,5.794017375743671,20.27571351457345
6.172875548,-6.1662071606484545,8.765623625082323,20.16333625748392
6.177875548,-6.92539323986616,11.4950553596988,19.573069194406628
6.182875514,-7.537800927696202,13.963676058450515,18.533736219667034
6.187875514,-8.00168118673957,16.164244707149823,17.08819523579257
6.192875514,-8.319150257936974,18.099946081152602,15.291526551858485
6.197875547,-8.495865303817284,19.782924282950283,13.208795410953089
6.202875547,-8.540582688736118,21.232412571520165,10.912494442115975
6.207875547,-8.46462030255916,22.47256970011701,8.47977697754713
6.212875513,-8.281249521734333,23.53014465484424,5.989592927493598
6.217875513,-8.005045503885798,24.432097592025517,3.5198365758962122
6.222875513,-7.6512264266451675,25.203304965824604,1.1446114931894
6.227875546,-7.2350127948568215,25.864471458545548,-1.0682879864583508
6.232875546,-6.771036756904227,26.430360478595148,-3.059587591329297
6.237875546,-6.272828346269911,26.908438887814,-4.780357255992892
6.242874879,-5.7524008766421195,27.29801080024008,-6.193385936760274
6.247874212,-5.219951794292859,27.589890678458122,-7.274064196412383
6.252873545,-4.683688618270675,27.766638728738148,-8.01075342137607
6.257872845,-4.149782618708128,27.803353076224056,-8.404642900726618
6.262872145,-3.6224459788871015,27.668984734891573,-8.469117724760359
6.267871478,-3.104121697514347,27.328114301725478,-8.228680522139625
6.272870844,-2.5957697147296748,26.743104868167368,-7.7174875862958565
6.27787001,-2.0972279328007595,25.87652502805708,-6.977574175877611
6.28286911,-1.6076231118730206,24.693720116077383,-6.056853988148522
6.28786821,-1.125804131409838,23.16539980265473,-5.006983389975104
6.292867276,-0.6507688680766671,21.27010650584739,-3.8811816929373766
6.297866576,-0.18205604970351583,18.99643199124398,-2.7320949479377235
6.302866576,0.27992492557783577,16.34485882088357,-1.6097834212487714
6.307865909,0.733649908459126,13.32911843634049,-0.5599033769097302
6.312865275,1.1763403672946087,9.97697791589491,0.37785692736502824
6.317864641,1.6039404522685319,6.330392108669761,1.1710384747695086
6.322864674,2.0112154458366054,2.4449861494851826,1.7953332564744
6.327864674,2.391968120815293,-1.6111356505385017,2.235142334485158
6.332864474,2.739361243156036,-5.75922606465168,2.4837592059970386
6.33786444,3.0463265504605195,-9.912315345792765,2.5431816252102273
6.34286444,3.3060334855937747,-13.978123656877338,2.4235699625051494
6.347864173,3.512385240197593,-17.8623453475962,2.1423852890587476
6.352863539,3.660505752469125,-21.47216130423392,1.7232546345414352
6.357863539,3.747179697145149,-24.719818023915995,1.1946230567346026
6.362863539,3.771208649184824,-27.52610201200445,0.5882611985907956
6.367863505,3.7336508140479125,-29.823537006193842,-0.062297875901359136
6.372863471,3.6379190717471492,-31.559140510170696,-0.7233179849529798
6.377863437,3.4897223263037715,-32.69659560347061,-1.3623442589036732
6.382863437,3.2968476873033814,-33.21772338478298,-1.9495492790520106
6.387863437,3.0687948479910565,-33.123178942643634,-2.45888845715789
6.392864137,2.816287698452536,-32.43233664461722,-2.8690255397153828
6.397864837,2.550699860341843,-31.182375362032744,-3.164003694987199
6.402865537,2.283438628851216,-29.42661746224181,-3.3336521479601915
6.407866203,2.0253345678296175,-27.232213906626086,-3.3737315936887535
6.412866869,1.7860815396263219,-24.677299288151787,-3.285832798113338
6.417867502,1.5737650757912933,-21.847763666695485,-3.0770514718381703
6.422868168,1.3945071952066652,-18.833801866018796,-2.7594686581559493
6.427869034,1.252244706024295,-15.726405351403509,-2.349469777602406
6.432869967,1.1486470485585536,-12.613957353118,-1.8669375250794065
6.437870867,1.0831697282827377,-9.579079464429341,-1.3343544436924804
6.442871767,1.0532308342118448,-6.6958587918599495,-0.77585055178428
6.447872067,1.0544913029719116,-4.027560354871914,-0.21623011942404352
6.452872033,1.0812146340879485,-1.6249014402465791,0.319990268601211
6.457872699,1.1266787659690523,0.4750653148617773,0.8095027484221494
6.462873332,1.1836117652930362,2.249443582353051,1.2310616562969643
6.467873998,1.244623742067667,3.689372300836499,1.5662460495168429
6.472873998,1.302609757765576,4.799331156280483,1.8001112761919422
6.477874031,1.3511021429175816,5.595935048648603,1.9217130719305375
6.482874231,1.3845552372400283,6.106299041539824,1.9244911622510767
6.487874231,1.3985507617150887,6.366069595613952,1.8065029027390453
6.492874197,1.3899175014403637,6.41722717956764,1.5705011498819128
6.49787443,1.3567644167642716,6.305769577200144,1.2238543901923105
6.502875063,1.2984314255023819,6.079384501001545,0.7783112135618641
6.507875063,1.2153666561730296,5.78521479192836,0.24961550849111527
6.512875063,1.1089427456123673,5.467810005454172,-0.34301675570977785
6.517875096,0.9812275744580636,5.1673451659041145,-0.9775436948637242
6.522875129,0.8347265833111289,4.918171617927521,-1.6298465843295062
6.527875162,0.6721144410147113,4.747746974399996,-2.2745574527767363
6.532875162,0.49597338255070184,4.6759719432854565,-2.8859369362500082
6.537875162,0.30855412729866705,4.714942108741741,-3.4387710319805116
6.542875128,0.11157312620173884,4.869103322263394,-3.90925337541121
6.547875128,-0.0939428029343079,5.13578096753267,-4.275819070655194
6.552875128,-0.30775637723240695,5.506036687377884,-4.5198972521263565
6.557875161,-0.5304592708826971,5.965791833319529,-4.626552661305072
6.562875161,-0.7634489774817234,6.497145482523548,-4.584991612571004
6.567875161,-1.0088437057535842,7.079806855136043,-4.388914572832263
6.572875127,-1.2693382459674132,7.692557751113023,-4.0367057303691
6.577875093,-1.5480057737916784,8.314660466303033,-3.5314587221432228
6.582875059,-1.8480523588061228,8.927130628888522,-2.8808463157340176
6.587875059,-2.1725326473550313,9.513802423917664,-2.0968494365408783
6.592875092,-2.524036911060442,10.062125475594915,-1.195366773044259
6.597875492,-2.9043614231930532,10.563647821634707,-0.19572991268439913
6.602875525,-3.314175855307616,11.014157438602274,0.8798494146175305
6.607875525,-3.7527029018475204,11.413475069238087,2.0068736068455406
6.612875525,-4.217426455201784,11.76491283714246,3.1591703358032057
6.617875491,-4.703845223620732,12.07443505167682,4.3094990409574905
6.622875491,-5.205288607584973,12.349578030618531,5.430135565302824
6.627875491,-5.712810840339022,12.598202957800131,6.493422938200931
6.632875524,-6.215177774712806,12.82716835884089,7.472281902933053
6.637875557,-6.698958204204654,13.04101587456401,8.34068019519967
6.642875557,-7.148728230527491,13.240764297340386,9.074064295216354
6.647875557,-7.547392975175517,13.422902357276888,9.64976098954803
6.652875557,-7.876624974958908,13.578660831853572,10.047358280769865
6.657875557,-8.117413051353711,13.693629750025611,10.249075780670138
6.662875557,-8.250709508945969,13.747767517462181,10.24013365965485
6.667875523,-8.258157465658174,13.71582666292806,10.009126591025405
6.672875523,-8.122874268743532,13.568196762786515,9.548405146149502
6.677875523,-7.830261670059189,13.272140264432426,8.854462085626773
6.682875556,-7.368809103061801,12.793372782838214,7.928315333367818
6.687875556,-6.730853388868283,12.097917312322064,6.775873534750988
6.692875556,-5.913256819897308,11.154142861405427,5.408264443753884
6.697875522,-4.91796607403045,9.934883301043309,3.842101455210498
6.702875522,-3.7524169530250018,8.419522575414542,2.0996599131293454
6.707875522,-2.4297545522993116,6.595928537578555,0.20893285457930727
6.712875555,-0.9688450482334967,4.46211997359568,-1.796464057606609
6.717875621,0.6059364237719522,2.0275599957472576,-3.877566309804887
6.722875621,2.2651477170737593,-0.6860162922826926,-5.990536282785325
6.727875621,3.9749469064715046,-3.6443116720003337,-8.087357425250863
6.732875621,5.697969487197678,-6.8007610389303785,-10.116754546487
6.737875621,7.394389656337258,-10.097428155668734,-12.025337458693826
6.742875587,9.023129935754831,-13.466492106848056,-13.758953407291322
6.747875587,10.543174694685339,-16.832278729816974,-15.264221107487327
6.752875587,11.914936015447829,-20.11376109707764,-16.490206413713764
6.75787562,13.101615279301033,-23.227424452762516,-17.390187455711217
6.762875653,14.070501346640125,-26.09036686617222,-17.92344632486681
6.767875653,14.79414678299015,-28.623489290207402,-18.05701594547075
6.772875619,15.251367638052,-30.75461942630988,-17.767305376540477
6.777875585,15.428019966950052,-32.42141391273915,-17.041524981477497
6.782875585,15.31751736455341,-33.57389315918981,-15.878834899991638
6.787875585,14.921067562461706,-34.17648199731038,-14.29114606370792
6.792875618,14.247621435960099,-34.20945568667811,-12.303512523489829
6.797875618,13.313543116464698,-33.66972263855457,-9.954066965057589
6.802875618,12.14202384690923,-32.570910222077686,-7.293467721833211
6.807875618,10.762273585757859,-30.942755908795583,-4.3838448543745985
6.812875618,9.208532454475362,-28.829840561984202,-1.2972541857786601
6.817875618,7.518948739250271,-26.28973186469185,1.8863293702961652
6.822875584,5.734371541737801,-23.390632117185657,5.081425216391464
6.827875584,3.897104837108413,-20.208644914228156,8.19979129766112
6.832875584,2.0496662669865517,-16.82478905642486,11.153402821195236
6.837875617,0.23358914408665019,-13.321895325213813,13.857551012131877
6.842875617,-1.511699416585631,-9.781522575065543,16.23393226979776
6.847875617,-3.1498969135525767,-6.281024415473218,18.21358688086651
6.852875583,-4.648718182438096,-2.890887348338736,19.739541530152987
6.857875549,-5.980644534519645,0.32755361806594374,20.769015104569608
6.862875515,-7.123515128742243,3.3239346276656896,21.275066278000864
6.867875448,-8.060949880219159,6.060152865723922,21.24759410118317
6.872875481,-8.78259700304572,8.51108636500068,20.69364450950338
6.877875514,-9.284202752043544,10.664729312052845,19.637019166837742
6.882875547,-9.567506009524168,12.5217540852392,18.117222505035528
6.88787558,-9.639965616276875,14.094535406491353,16.187815060583592
6.89287558,-9.514333192531893,15.40569356842561,13.914265109944443
6.897875546,-9.208088167272505,16.486231838412653,11.371405996810687
6.902875512,-8.742754643037651,17.373357310368903,8.640614063844584
6.907875512,-8.143121765593381,18.10808455937923,5.806823421284802
6.912875178,-7.43639098606655,18.732727653558126,2.9554914463544746
6.917875211,-6.651275538067518,19.288388665595487,0.16962529796131576
6.922875211,-5.817079625541638,19.8125499212839,-2.473024399348984
6.927875211,-4.9627865658475585,20.33687272925054,-4.9025025630310095
6.932875177,-4.11618558432093,20.885297127830977,-7.0588311855697725
6.937875143,-3.3030656590056147,21.47252534841022,-8.893758052563049
6.942875109,-2.5465018862876447,22.102956607307277,-10.372016218170224
6.947875109,-1.8662556893246383,22.770123069661512,-11.472059217628658
6.952875142,-1.2783052504348147,23.456657028308015,-12.186259323688317
6.957875175,-0.7945171755944639,24.134798197374472,-12.520578127874202
6.962875208,-0.422464883490756,24.767428261010696,-12.49373936550556
6.967875208,-0.16539378481202666,25.3095982024221,-12.135952460858078
6.972875208,-0.022328166677750307,25.710493238706444,-11.48725118988302
6.977875174,0.011690021460186656,25.915761150573356,-10.59552472140706
6.982875174,-0.054755565791384055,25.870113123352567,-9.51432778417709
6.987875174,-0.20991293655755747,25.520092561982185,-8.300562594877265
6.992875207,-0.4393994846762688,24.81689732500443,-7.012127323395062
6.997875207,-0.7267983344447966,23.71913500348233,-5.705624134738433
7.002875207,-1.0542907148777991,22.195389701093866,-4.434214165366219
7.007875207,-1.4033020308977906,20.226482505306755,-3.2456974107658225
7.012875207,-1.7551404484293054,17.80731647906863,-2.180883181893228
7.017875207,-2.091608609133344,14.948210324917548,-1.2723026281574465
7.022875173,-2.395571307434951,11.67564249280391,-0.5432998003171341
7.027875139,-2.651464453109664,8.032348895904821,-0.0075224072862003066
7.032875139,-2.845733318958088,4.076741913026413,0.33118193313152416
7.037875139,-2.967190845171858,-0.11835473519475931,0.47847330626682205
7.042875172,-3.007289541143924,-4.467632087788085,0.4488549121963734
7.047875172,-2.9603032129077325,-8.875830453115384,0.26467370662749184
7.052875172,-2.823417303043611,-13.240800442589062,-0.045164425249308846
7.057875138,-2.59672903014366,-17.45698066016345,-0.44670585998484913
7.062875471,-2.283160732363394,-21.41915699175246,-0.902620293983565
7.067875471,-1.8882918363770576,-25.026347688143495,-1.3739603549962498
7.072875504,-1.4201166880840566,-28.185643863765627,-1.8219363124974073
7.077875504,-0.8887371311183847,-30.81582837555064,-2.2096331044169535
7.082875504,-0.30600029325274364,-32.85059881260134,-2.5036006150241414
7.087875504,0.31490635402612926,-34.24123350569948,-2.675255072257183
7.092875504,0.9598889535927555,-34.95856321556449,-2.702039431705976
7.097875504,1.614395077900209,-34.994144576760085,-2.5683030427539233
7.10287547,2.2638594597720965,-34.36057242489695,-2.2658747070738507
7.107875136,2.894132075135987,-33.090913872488976,-1.7943173308147415
7.112875136,3.491874705299418,-31.23729399171933,-1.1608659244909896
7.117875169,4.044914778054882,-28.868707693764012,-0.3800632624072871
7.122875169,4.542548302734867,-26.06817161840863,0.5268812295833544
7.127875169,4.975786486268887,-22.92936097262174,1.5329741663853602
7.132875135,5.3375428425402704,-19.55289764065355,2.6065196503411725
7.137875101,5.6227592738781835,-16.042466898601287,3.7123512724189975
7.142875067,5.828470859800623,-12.500940927451511,4.813163465432634
7.147875067,5.95381011451081,-9.0266788816831,5.870890318429335
7.152875067,5.999952414254094,-5.710156812388354,6.848081385585603
7.1578751,5.970005238531743,-2.6310578093597856,7.709227247774538
7.162875133,5.868844861296793,0.1440750011144843,8.4219922317307
7.167875166,5.702905181502555,2.5635507597263585,8.958317363267838
7.172875166,5.479924483952846,4.591568790580841,9.29536295125474
7.177875166,5.208657046502765,6.208574340977457,9.416266839160832
7.182875132,4.898557627820296,7.41095453361423,9.310701051267941
7.187875132,4.559447936760062,8.210124114163339,8.975216084954898
7.192875132,4.201175127897393,8.631073761222778,8.413368284114524
7.197875165,3.8332730852416814,8.71047216580848,7.635631447830613
7.202875165,3.464637629283348,8.494426371212924,6.659099037817614
7.207875165,3.10322670701633,8.036012873736924,5.506988088931056
7.212875131,2.7557960408678417,7.3926948318137375,4.207960296493185
7.217875097,2.427679619566861,6.623738690384118,2.795279859872005
7.222875063,2.1226228607757154,5.787736997167509,1.305831583941516
7.227875063,1.8426743420399592,4.940333675602227,-0.22097349169726746
7.232875096,1.5881397814353926,4.132234144188747,-1.7443740869849529
7.237875129,1.3575995671314758,3.4075661562584982,-3.223482172884077
7.242874495,1.1479887257073336,2.8026388731678566,-4.6185170491878145
7.247873828,0.9547359442720971,2.3451282960048854,-5.892011064824625
7.252872928,0.7719562721134199,2.0536975657363445,-7.009947060101543
7.257872561,0.592690518100671,1.9380415522129109,-7.942788019269244
7.262872527,0.40918315355071777,1.9993272622887746,-8.666361542852986
7.267872527,0.21318970824874517,2.230985478929368,-9.162565851829656
7.27287256,-0.0036958024948747495,2.6197951941577937,-9.419870245451097
7.277871926,-0.24970293382517214,3.1471912924690306,-9.433591145651347
7.282871026,-0.5325454744387121,3.790718025782992,-9.205934708701571
7.287870126,-0.8590890263372112,4.525546450906495,-8.745807885701478
7.292869226,-1.2350327228166087,5.3259733783182766,-8.068411003835372
7.297868326,-1.6646112069545378,6.166822554851888,-7.194635482882398
7.302867426,-2.150322148709316,7.024675679069833,-6.150299165843587
7.307867626,-2.69268415784775,7.878871182554366,-4.965258044247176
7.312867626,-3.290029980048097,8.712222127873728,-3.6724364515882955
7.317866959,-3.9383402582451037,9.511420646194532,-2.3068181959628817
7.322866992,-4.631123774745763,10.267114588238092,-0.9044390853093761
7.327866992,-5.35935086019259,10.973661791601309,0.4985826648982927
7.332866992,-6.111447470056472,11.628587469622685,1.8669472854653324
7.337866958,-6.873358133176042,12.23178927045779,3.1669817536795843
7.342866958,-7.628686328190432,12.784551090503333,4.367339685001821
7.347866958,-8.358920562358183,13.288439556246734,5.439585143252915
7.352866591,-9.043753253805145,13.744165356219312,6.358660360836708
7.357865924,-9.66149725598131,14.15049477245001,7.103243843770557
7.362865924,-10.189601427775356,14.50329460606278,7.656010121078708
7.367865924,-10.605262117560219,14.794786355659904,8.003805207989105
7.372865924,-10.886122013974921,15.013073514906365,8.13775271759359
7.377865924,-11.01104181740429,15.141990033560633,8.053304772038063
7.38286589,-10.960923923303561,15.161299321000504,7.750249856361485
7.387865856,-10.719561139699655,15.047252701129757,7.232686926055766
7.392866522,-10.27447783106513,14.77349498897582,6.508971715213817
7.397867222,-9.617726317444712,14.312283870106612,5.591637499796945
7.402868155,-8.746598400633747,13.635970021406983,4.4972887446279985
7.407868821,-7.664210999449359,12.718667387581434,3.246462343926802
7.412868821,-6.379926368809457,11.538028646454986,1.8634478444866014
7.417868787,-4.909571382500366,10.077030496175752,0.37605543578200923
7.422868787,-3.275426818427623,8.325667681264234,-1.184681089477725
7.427869453,-1.5059662804437446,6.28245415240937,-2.7848795147528933
7.432870386,0.36466501808904644,3.9556346979023016,-4.388274555251972
7.437871286,2.297429345583777,1.364020802075241,-5.956782982723369
7.442872186,4.249418225032238,-1.4626198810538664,-7.451174431697716
