Time (s),Acceleration x (m/s^2),Acceleration y (m/s^2),Acceleration z (m/s^2)
9.002654182,-0.047371511804324966,0.32030780624923894,0.05353241264340825
9.007409651,-0.23513103267109783,0.5589213616899139,0.023898362191571012
9.012165068,-0.4205347091048044,0.7894016612320817,-0.00458738176140937
9.016920536,-0.6006437877154731,1.0081447333117421,-0.031291503718240785
9.021676005,-0.7726358955906297,1.2117220747289077,-0.05563856908689497
9.026431474,-0.9338622469108394,1.3969495870907112,-0.07712765292817968
9.031186891,-1.0819003470854787,1.560954061683157,-0.09534678568866836
9.035942359,-1.2146009311684336,1.7012358887979437,-0.1099847471652634
9.040697828,-1.3301280454928084,1.815726634932082,-0.12083984520136601
9.045453245,-1.4269913783393264,1.9028401234412273,-0.1278254327751123
9.050208714,-1.5040701648534867,1.961515678278897,-0.1309720376118511
9.054964182,-1.560628230606334,1.9912522524386767,-0.13042609523066426
9.059719599,-1.5963199913138342,1.9921322669664328,-0.126445384995526
9.064475068,-1.6111874838564832,1.9648341350490357,-0.11939136649306838
9.069230536,-1.6056487547571976,1.9106326385055046,-0.1097186975919819
9.073986005,-1.5804781664819754,1.8313865585233504,-0.0979622830485684
9.078741422,-1.536779391058213,1.7295132339781603,-0.08472225263331862
9.083496891,-1.475952037518931,1.6079500222935679,-0.07064730269853123
9.088252359,-1.39965299832539,1.4701029608794922,-0.056416858603438536
9.093007776,-1.3097536957743519,1.3197832618295011,-0.042722529848765005
9.097763245,-1.2082944613005089,1.1611326082873294,-0.030249335542840285
9.102518714,-1.097437290967106,0.99853854714399,-0.019657175060494376
9.10727413,-0.9794181942827618,0.8365415791110058,-0.011563008300634012
9.112029599,-0.856500296481732,0.6797358237753983,-0.006524191876609467
9.116785068,-0.7309287711134934,0.5326653748070682,-0.005023389542849311
9.121540536,-0.604888572827806,0.3997186510099501,-0.007455433305675893
9.126295953,-0.48046581118119275,0.2850231856879403,-0.01411645364058763
9.131051422,-0.3596134576285757,0.19234337452632475,-0.025195524586855287
9.135806891,-0.24412191450460338,0.12498371677921903,-0.04076898754940981
9.140562307,-0.13559480375594987,0.08570003307183055,-0.060797533452668695
9.145317776,-0.03543016193912947,0.07662102416285753,-0.08512604249375802
9.150073245,0.05519293689439546,0.099182349258727,-0.11348610727819815
9.154828714,0.1353224619544659,0.1540751530920903,-0.14550109903411393
9.15958413,0.20423647838544043,0.24121066360166465,-0.1806935774661536
9.164339599,0.2614415561836539,0.35970212436877985,-0.21849479305923658
9.169095068,0.30666701117759376,0.5078649269985112,-0.2582559882333553
9.173850484,0.3398555179185,0.6832353780314467,-0.2992611737456892
9.178605953,0.3611506697865357,0.8826080827736384,-0.34074104175202885
9.183361422,0.3708820697806197,1.1020914653159242,-0.3818876773235352
9.188116891,0.36954851988202486,1.3371804816707147,-0.42186974370917674
9.192872307,0.35779984252516955,1.5828451341783083,-0.45984783982702787
9.197627776,0.33641781981749747,1.8336329736893837,-0.49498975810481655
9.202383245,0.3062966795851457,2.0837833951255122,-0.5264854034597356
9.207138714,0.2684234965051655,2.327351204548415,-0.5535611655816092
9.21189413,0.22385881560781584,2.558336672666939,-0.575493562523009
9.216649599,0.17371774801573617,2.7708190990563257,-0.5916219922803055
9.221405068,0.11915173803279981,2.9590907985974035,-0.6013604426118359
9.226160484,0.061331158662099435,3.1177883891129805,-0.6042080212850802
9.230915953,0.0014288600168240356,3.2420183064139314,-0.5997581811015898
9.235671422,-0.05939522886571172,3.327473596922328,-0.587706525930974
9.240426891,-0.12000836166489219,3.370539233467326,-0.5678570946431052
9.245182307,-0.17931803028922094,3.368383459893012,-0.5401270297224237
9.249937776,-0.23628375693916595,3.3190329868703166,-0.5045495488831515
9.254693245,-0.28992757808411995,3.2214302260568726,-0.4612751545910505
9.259448714,-0.3393431898230199,3.075471152925074,-0.4105710404932492
9.26420413,-0.3837037400768924,2.8820228197475286,-0.35281868543895356
9.268959599,-0.4222682709112063,2.6429199886299033,-0.2885096631727686
9.273715068,-0.4543868334563462,2.3609408099989677,-0.218239736316839
9.278470484,-0.4795043167019817,2.0397619257807795,-0.14270134374936386
9.283225953,-0.49716304650571486,1.6838938210497436,-0.06267462653131878
9.287981422,-0.5070042181509749,1.2985976763501517,0.02098283573621006
9.292736891,-0.5087682216553094,0.8897853786199108,0.10734739144733957
9.297492307,-0.5022939041773122,0.4639047249628992,0.19544159505641442
9.302247776,-0.48751679290272115,0.02781219336423298,0.2842472054254166
9.307003245,-0.4644662822468273,-0.411364049295948,0.37271871284850916
9.311758714,-0.4332617786962241,-0.8463679856212334,0.4597971999226411
9.31651413,-0.39410779993286926,-1.2699633267505748,0.5444243361784403
9.321269599,-0.347288043117317,-1.6750815995757082,0.625556301833986
9.326025068,-0.29315846886262964,-2.0549674515669296,0.7021774351997142
9.330780536,-0.23213948998937367,-2.4033178988499504,0.7733134032159144
9.335535953,-0.16470740476104584,-2.7144123372092874,0.8380437059341888
9.340291422,-0.09138526978209313,-2.983230308372114,0.8955133429475814
9.345046891,-0.012733464489542006,-3.2055542636912713,0.9449434920530893
9.349802359,0.0706597469868044,-3.378054891038555,0.985641077034983
9.354557776,0.15818730458636593,-3.498356963752449,1.0170071311572135
9.359313245,0.24923170584692633,-3.565084126657421,1.038543893743276
9.364068714,0.3431722211776674,-3.577881545578288,1.0498606068718304
9.368824182,0.4393905711744353,-3.5374159034179504,1.0506780060552536
9.373579599,0.5372746940036692,-3.445352814580983,1.0408315217499253
9.378335068,0.636220287118693,-3.3043123328299995,1.0202732267107735
9.383090536,0.7356298952544906,-3.117803823588099,0.9890725764954641
9.387845953,0.8349094353235186,-2.890142034714908,0.947415996206098
9.392601422,0.9334621931079651,-2.6263467028238887,0.8956053661217008
9.397356891,1.030680486492463,-2.3320284503153346,0.8340554535104783
9.402112359,1.1259353531614713,-2.0132640430669686,0.7632903297181732
9.406867776,1.2185647757219236,-1.6764642810542367,0.6839388032944843
9.411623245,1.3078610947834943,-1.328237883777042,0.5967288944289667
9.416378714,1.3930583729541586,-0.9752547151370854,0.502481376285443
9.421134182,1.473320553373599,-0.6241115777903604,0.40210241711277755
9.425889651,1.5477313003716675,-0.2812036065470178,0.29657537268202583
9.430645068,1.6152864148748722,0.047395982727904455,0.1869517959030026
9.435400536,1.6748896840981513,0.3560453636367432,0.07434173853046405
9.440156005,1.7253529570877104,0.6396307389820431,-0.040096592142029694
9.444911474,1.7654011389906321,0.8936485039563026,-0.15516779307464104
9.449666891,1.7936826704397197,1.1142717090433465,-0.2696508589646792
9.454422359,1.8087859044045236,1.2984000283037676,-0.38231146391008025
9.459177828,1.8092616097769525,1.443692866378848,-0.4919149964803693
9.463933297,1.7936516182797722,1.5485856541758825,-0.5972403887635823
9.468688714,1.7605233915940244,1.6122897791842625,-0.6970947205513672
9.473444182,1.708510025142738,1.63477696250001,-0.7903284923986655
9.478199651,1.6363549330195086,1.6167492230296996,-0.8758513562273276
9.48295512,1.542960186671092,1.559595853923073,-0.9526479825618591
9.487710536,1.4274372216818043,1.4653390723369961,-1.0197936446395899
9.492466005,1.2891583976181427,1.3365701868106372,-1.0764690280512805
9.497221474,1.1278077111217513,1.1763782522831974,-1.1219737460149213
9.501976943,0.9434288365180193,0.9882732469013219,-1.155738065505523
9.506732359,0.7364686121302682,0.7761058045973844,-1.177332428501422
9.511487828,0.5078141109016404,0.5439854731330803,-1.1864744731533527
9.516243297,0.25882153231360916,0.2961993427018293,-1.1830333996628926
9.520998766,-0.008664674895940302,0.03713271283961002,-1.1670316602010378
9.525754234,-0.29230381141208694,-0.22880675395337627,-1.138644061182359
9.530509651,-0.5892631070732763,-0.4972601919370402,-1.0981944394166872
9.53526512,-0.8962348080803121,-0.7639830690023005,-1.0461501116535672
9.540020589,-1.2094665384873986,-1.0249044299169456,-0.9831143080726933
9.544776057,-1.5248049302030522,-1.276179429729246,-0.9098167955365198
9.549531474,-1.837752141479199,-1.5142349737975225,-0.8271028860405956
9.554286943,-2.1435345164668727,-1.7358084828200906,-0.735921016988349
9.559042411,-2.4371822839389377,-1.9379799661001063,-0.6373090869896312
9.56379788,-2.7136188564734223,-2.118197710744005,-0.5323797357169253
9.568553297,-2.967757977259281,-2.274297977909224,-0.42230476845801745
9.573308766,-3.194606676811113,-2.4045191411905633,-0.308298943001041
9.578064234,-3.389371754960392,-2.5075107103217165,-0.19160335570827333
9.582819703,-3.547567304978851,-2.5823376608144764,-0.07346868348186912
9.587575172,-3.6651206575325217,-2.6284804434319784,0.044861442021280964
9.592330589,-3.7384740520143827,-2.645830983739876,0.1621666334077713
9.597086057,-3.7646793484376144,-2.634684909174739,0.2772652110442148
9.601841526,-3.7414831774678063,-2.595730166972697,0.38902861514280407
9.606596995,-3.667400088266785,-2.530032128063998,0.496394453714263
9.611352411,-3.541771489154565,-2.4390152156250307,0.5983778898849538
9.61610788,-3.3648084782580288,-2.3244410574009433,0.6940811034247537
9.620863349,-3.1376170231112144,-2.188383142452556,0.7827006089233698
9.625618818,-2.862204361450803,-2.0331979687040094,0.8635322764934594
9.630374234,-2.541465950006823,-1.8614926986456566,0.9359739779155186
9.635129703,-2.179152771137552,-1.6760893956931817,0.9995258677901508
9.639885172,-1.7798193039440735,-1.4799859902642976,1.0537884001726587
9.644640641,-1.3487529614349862,-1.2763142186250875,1.0984582701842225
9.649396109,-0.8918862732753884,-1.0682948837993667,1.1333225514501761
9.654151578,-0.4156935413643082,-0.8591909000166302,1.1582513696637986
9.658906995,0.07292589779492384,-0.6522586933330934,1.1731895076382886
9.663662464,0.5667753130861428,-0.45069863427857204,1.178147376929644
9.668417932,1.0584963317881713,-0.25760526750033236,1.1731918159048509
9.673173401,1.5407097853829503,-0.07591817365616692,1.1584371852488393
9.677928818,2.0061584739154954,0.09162565275119136,1.1340372301151513
9.682684286,2.4478486043559604,0.24253700089266142,1.1001781624653968
9.687439755,2.8591866742912564,0.37461630698121035,1.057073384950803
9.692195224,3.2341086721066765,0.48599129784448997,1.0049602259008883
9.696950693,3.567198643294625,0.5751495778552979,0.944098981410536
9.701706161,3.853793922542902,0.6409653962247969,0.8747744638967969
9.706461578,4.090074643933732,0.6827199301122953,0.7973001357235724
9.711217047,4.273135506545773,0.7001145404841976,0.7120247610170771
9.715972516,4.401038179493846,0.6932765993535923,0.6193413412826765
9.720727984,4.472843169522213,0.6627576451921728,0.5196979198343518
9.725483401,4.48862043736625,0.6095237933854047,0.41360966234690777
9.73023887,4.449438528636064,0.5349385052310718,0.30167146665774985
9.734994339,4.357332473802454,0.4407379960399783,0.18457024484848122
9.739749807,4.215251202790218,0.3289997337711403,0.063095969784691
9.744505276,4.0269857048551465,0.20210463773237622,-0.061849407308365856
9.749260693,3.797079634590204,0.06269372660820832,-0.1892459855924999
9.754016161,3.5307245082594676,-0.08637991716372294,-0.3179535804450702
9.75877163,3.2336420354934186,-0.2421029054104539,-0.4467135562798306
9.763527099,2.911956469926589,-0.40135599318291126,-0.5741551800991384
9.768282568,2.5720601172333977,-0.56097014164976,-0.6988066752830983
9.773037984,2.220475292915018,-0.7177830980076021,-0.8191109928686837
9.777793453,1.8637160685810874,-0.8686954021580799,-0.9334461673751523
9.782548922,1.5081530909511847,-1.0107247632847434,-1.0401499791915334
9.787304391,1.1598846170184556,-1.1410578082789296,-1.1375484983858186
9.792059859,0.8246166958919784,-1.257098285302517,-1.2239879331776053
9.796815276,0.5075551511949484,-1.3565109053021005,-1.2978690541635698
9.801570745,0.21331168120536706,-1.437260116659795,-1.3576833214006991
9.806326214,-0.0541739996127601,-1.4976432274645857,-1.4020497169204809
9.811081682,-0.29169449810561304,-1.5363174102275323,-1.4297511919260129
9.815837151,-0.4968165636878436,-1.55232024023066,-1.439769586036767
9.82059262,-0.667903909453118,-1.5450835277066355,-1.4313178727416007
9.825348036,-0.8041210722903751,-1.514440304162815,-1.403868634247396
9.830103505,-0.905418868443084,-1.4606249143911467,-1.3571777693190035
9.834858974,-0.9725024931709366,-1.3842662490605468,-1.2913025836463998
9.839614443,-1.0067837611630592,-1.286374229891594,-1.206613593679351
9.844369911,-1.0103193718501158,-1.1683197323268513,-1.1037995798906959
9.849125328,-0.9857373991675075,-1.0318082019337276,-0.9838656426823147
9.853880797,-0.9361544410014685,-0.8788472937275564,-0.8481242330733021
9.858636266,-0.8650860136099727,-0.7117089416212651,-0.6981793403199211
9.863391734,-0.7763528355185322,-0.532886351072665,-0.5359042089882301
9.868147203,-0.6739856106907076,-0.34504650300398265,-0.363413119319399
9.872902672,-0.5621307936190527,-0.15097886081566123,-0.18302789107890963
9.877658089,-0.44495960621831265,0.04645891696596287,0.002760138174062541
9.882413557,-0.32658229008560913,0.24439734130810084,0.19133184929375133
9.887169026,-0.21096923517227956,0.4400125041912601,0.3799849427748484
9.891924495,-0.10188024950025917,0.6305834022717774,0.565980530509381
9.896679964,-0.0028028495067359263,0.813547951668174,0.7465908272612499
9.90143538,0.08309991835853954,0.9865564138623715,0.9191470431050888
9.906190849,0.15303194676629134,1.1475209283100156,1.0810865797830616
9.910946318,0.20459693314407823,1.2946598621511738,1.229998645601031
9.915701786,0.23582197897457682,1.4265357433069967,1.3636674244960623
9.920457255,0.2451724417788828,1.5420856400714706,1.4801119654728807
9.925212724,0.23155869593157863,1.6406429866171277,1.5776220008312358
9.929968141,0.19433555437463312,1.7219500275390582,1.654788958684792
9.934723609,0.1332951606962939,1.78616026310578,1.7105315094249447
9.939479078,0.04865418382405317,1.8338305169964644,1.7441150762156088
9.944234547,-0.05896385845943523,1.8659025157561069,1.7551648421127317
9.948990016,-0.1885503494792618,1.883674158763934,1.743671895713175
9.953745484,-0.3387366451240059,1.888760962543307,1.7099922711185673
9.958500901,-0.5078217743166143,1.88304847464582,1.6548387603390045
9.96325637,-0.6938021478774986,1.8686367578666514,1.5792655164276006
9.968011839,-0.8944027394824556,1.8477783304862334,1.484645633285619
9.972767307,-1.1071092996410024,1.8228111971798577,1.372642086133846
9.977522776,-1.329201272535265,1.796088804147684,1.245172637481913
9.982278245,-1.5577852023360368,1.7699088904646465,1.1043695401676457
9.987033661,-1.789828534493426,1.7464432807183146,0.9525350789751905
9.99178913,-2.022193831328231,1.7276706724945634,0.7920941600088713
9.996544599,-2.2516735202372207,1.7153144206156083,0.6255452587171182
10.00130007,-2.475025363365364,1.7107872128572428,0.45541105902282003
10.00605554,-2.689008864472528,1.7151443712586685,0.2841900597437563
10.010811,-2.8904228011690902,1.7290472986419172,0.11431030908411119
10.01556647,-3.0761439885427824,1.7527383215370838,-0.051913719784035806
10.02032189,-3.2431672550970227,1.786027862234892,-0.21232025465368776
10.02507736,-3.388646462148126,1.8282945132564496,-0.36493464230900297
10.02983283,-3.5099362402301137,1.8784982002867006,-0.5079984852554242
10.0345883,-3.604633960763474,1.9352062199575886,-0.6399930529149916
10.03934377,-3.6706213122815625,1.9966315431629187,-0.759656654244111
10.04409923,-3.706104710603963,2.0606823988376255,-0.8659957987377243
10.04885465,-3.709653647375751,2.125021811134068,-0.9582901231788753
10.05361012,-3.6802359809950422,2.1871354649553196,-1.0360912186101758
10.05836559,-3.617249108698348,2.244406027695151,-1.0992156480927433
10.06312106,-3.5205459368040426,2.2941918631459695,-1.147732591340392
10.06787653,-3.390454592763414,2.3339079396264943,-1.1819466790627136
10.072632,-3.227790899636174,2.3611066600208885,-1.202376682885809
10.07738746,-3.0338627600283647,2.3735563271576656,-1.2097308045450756
10.08214288,-2.810465768555648,2.369315003447443,-1.2048793620925369
10.08689835,-2.5598695828957374,2.346797627778381,-1.1888257043657218
10.09165382,-2.2847948250135794,2.3048344131493512,-1.1626762008331333
10.09640929,-1.98838054673107,2.2427187616949285,-1.127610152489761
10.10116476,-1.6741425671642713,2.1602431940011115,-1.0848504472488611
10.10592022,-1.345923262329612,2.057722089685915,-1.0356357336899167
10.11067569,-1.0078336470164488,1.9360003682628035,-0.9811948033153892
10.11543111,-0.6641888228607953,1.7964475957904131,-0.9227237504318127
10.12018658,-0.31943806264646984,1.640937376897007,-0.8613663236611167
10.12494205,0.021909048760066614,1.4718122771300826,-0.7981977052116811
10.12969752,0.35535889430866074,1.291834910761204,-0.7342117722159638
10.13445298,0.6765109468900914,1.104126216405532,-0.6703117310577896
10.13920845,0.9811341404102436,0.9120923170409031,-0.6073038897677069
10.14396392,1.2652409186706608,0.7193417099915101,-0.5458942544588002
10.14871934,1.5251574465115607,0.5295948429666708,-0.4866876001030493
10.15347481,1.7575885540945553,0.34658839188524315,-0.4301886607690098
10.15823028,1.959676099276526,0.17397675477156416,-0.37680509349328445
10.16298574,2.129049570917845,0.015233405959441067,-0.32685187990314657
10.16774121,2.2638679141118407,-0.12644518900462004,-0.2805568338541069
10.17249668,2.3628517340188444,-0.248230417997291,-0.23806688230413883
10.17725215,2.4253052260223242,-0.34774454438532865,-0.19945478688926743
10.18200762,2.451127384051131,-0.4231334961494676,-0.16472598506007927
10.18676304,2.440812253652417,-0.47312725188769805,-0.1338252619172592
10.19151851,2.3954382184168095,-0.49708595501270925,-0.10664302215938834
10.19627397,2.3166465327497874,-0.4950302423677636,-0.08302101287223387
10.20102944,2.2066095348731296,-0.4676546735271674,-0.0627574413721999
10.20578491,2.0679891857829795,-0.41632358359909777,-0.04561152318246382
10.21054038,1.9038867781904107,-0.34304914627477423,-0.03130757022870584
10.21529585,1.7177848411876118,-0.2504519149599249,-0.019538780609435355
10.22005132,1.5134824295691098,-0.14170459615853595,-0.009970916641255281
10.22480673,1.295025128294409,-0.020460287054041286,-0.002246058532885776
10.2295622,1.066631216242483,0.10923313673135056,0.004013400382029231
10.23431767,0.832615511136402,0.24303038255832013,0.009200390411197756
10.23907314,0.5973124535941837,0.3763953904545306,0.013718358910209864
10.24382861,0.36499998251075516,0.5047145175864292,0.017975998592545325
10.24858408,0.13982571137399497,0.6234132900241618,0.022381535315159524
10.25333955,-0.07426315765980128,0.7280736264291676,0.027336631505128592
10.25809502,-0.27358484311888315,0.8145484005025098,0.033229976072777286
10.26285048,-0.4547816992792249,0.8790702616329816,0.040430632877508844
10.2676059,-0.6148715630775704,0.9183517734344249,0.04928121497737745
10.27236137,-0.7512908255261549,0.9296741526572713,0.060090949566768935
10.27711684,-0.8619285079818829,0.9109621892817493,0.07312870518083311
10.28187231,-0.9451508288779329,0.8608432937806424,0.08861607043981702
10.28662778,-0.9998159640525686,0.778689039389948,0.10672059986962668
10.29138324,-1.025278928216649,0.6646380340450736,0.12754937220935345
10.29613871,-1.021386732167887,0.5195994554437102,0.1511430348068431
10.30089418,-0.9884641969041528,0.3452370999306957,0.17747053030301957
10.30564965,-0.9272910283611724,0.14393431816369834,0.20642471738932672
10.31040507,-0.8390709702578262,-0.08125927525495932,0.23781910653594737
10.31516054,-0.7253940509757532,-0.32669793765698363,0.2713859346182093
10.31991601,-0.5881931156356163,-0.5882249394137214,0.3067757976601705
10.32467147,-0.42969597794936487,-0.861270456377703,0.3435590446023193
10.32942694,-0.2523746298751335,-1.1409596045588217,0.3812291023571063
10.33418241,-0.05889300392862161,-1.4222277221421489,0.4192078500980249
