Time (s),Acceleration x (m/s^2),Acceleration y (m/s^2),Acceleration z (m/s^2)
10.00130007,5.2737813,-4.046263218,-1.921436548
10.00605554,5.19481802,-4.352544308,-1.557727575
10.010811,4.835894585,-4.546362877,-1.110269666
10.01556647,4.457828522,-4.646861553,-0.9690931439
10.02032189,4.261617184,-4.632504463,-1.184447169
10.02507736,4.247260094,-4.453042984,-1.562513232
10.02983283,4.254438877,-4.125226021,-1.871187329
10.0345883,4.084548473,-3.816552162,-2.213361025
10.03934377,3.773481369,-3.510270834,-2.517249346
10.04409923,3.409772158,-3.247060299,-2.52682066
10.04885465,3.086741209,-3.007778168,-2.376072884
10.05361012,2.778067112,-2.787638426,-2.349751949
10.05836559,2.483749866,-2.608176708,-2.234896421
10.06312106,2.199003935,-2.433500528,-2.069791555
10.06787653,2.11046958,-2.30189538,-2.175075769
10.072632,2.048256159,-2.143969059,-2.234896421
10.07738746,2.167897224,-2.019542217,-2.342573404
10.08214288,2.225325108,-1.907079697,-2.409572363
10.08689835,2.555534601,-1.880758643,-2.321038008
10.09165382,2.857030153,-1.945364833,-1.875972986
10.09640929,3.349951744,-2.012363911,-1.450050473
10.10116476,4.02712059,-2.081755638,-0.9475577474
10.10592022,4.850251675,-2.177468538,-0.4354937077
10.11067569,5.580062389,-2.232503414,-0.3086741269
10.11543111,6.228517532,-2.220539331,-0.4833501875
10.12018658,6.764509678,-2.309073925,-1.093519926
10.12494205,7.140182972,-2.469393015,-1.849651933
10.12969752,7.508677483,-2.739781857,-2.447857618
10.13445298,7.951349735,-3.158525944,-2.660818815
10.13920845,8.291130066,-3.639483213,-2.581855536
10.14396392,8.58784008,-4.118047714,-2.203789711
10.14871934,8.805587769,-4.625326157,-1.765903115
10.15347481,9.013762474,-5.149354458,-1.416550994
10.15823028,9.293723106,-5.718846321,-1.177268744
10.16298574,9.489934921,-6.223731518,-1.138983607
10.16774121,9.645467758,-6.635297298,-1.337587833
10.17249668,9.87757206,-6.982256413,-1.773081541
10.17725215,10.12881851,-7.302894592,-2.191825628
10.18200762,10.01635551,-7.573283672,-2.344966173
10.18676304,10.06421185,-7.805387497,-2.258824587
10.19151851,10.10488987,-8.047062874,-1.897508383
10.19627397,9.851250648,-8.260024071,-1.462014675
10.20102944,9.832108498,-8.463413239,-1.105484009
10.20578491,9.906285286,-8.549555779,-0.890130043
10.21054038,9.7698946,-8.556734085,-0.6293123364
10.21529585,9.437292099,-8.446663857,-0.380458802
10.22005132,8.97308445,-8.202595711,-0.2344966233
10.22480673,8.437092781,-7.889136314,-0.1986042857
10.2295622,8.109275818,-7.467999458,-0.342173636
10.23431767,8.008777618,-7.037291527,-0.7178468108
10.23907314,7.843672752,-6.532405853,-1.074377418
10.24382861,7.709674358,-6.118447304,-1.280160069
10.24858408,7.520641804,-5.728417397,-1.402194023
10.25333955,7.25743103,-5.391029358,-1.332802176
10.25809502,6.958328247,-5.108676434,-1.05523479
10.26285048,6.69511795,-4.878965378,-0.7441678643
10.2676059,6.494120598,-4.728217602,-0.6101697683
10.27236137,6.398407936,-4.58943367,-0.500099957
10.27711684,6.29790926,-4.575077057,-0.4666004181
10.28187231,6.175875187,-4.649254322,-0.5359922647
10.28662778,5.984449387,-4.78085947,-0.6317051649
10.29138324,5.891129494,-4.934000492,-0.6053841114
10.29613871,5.845665932,-5.166104317,-0.4809573591
10.30089418,5.840879917,-5.462814331,-0.4498506486
10.30564965,5.989234924,-5.781059742,-0.4594219327
10.31040507,6.293123722,-6.173482418,-0.5694918036
10.31516054,6.620940208,-6.73100996,-0.7920243144
10.31991601,7.044469833,-7.290930748,-1.112662554
10.32467147,7.546962738,-7.819744587,-1.275374413
10.32942694,8.085348129,-8.449056625,-1.308874011
10.33418241,8.66680336,-9.183652878,-1.225125194
10.33893788,9.241081238,-9.846465111,-1.014556766
10.34369335,9.695717812,-10.717453,-0.6532405615
10.34844882,10.24845982,-11.50469112,-0.2201396823
10.35320429,10.80359459,-12.36850071,0.1986042857
10.35795976,11.34915733,-13.09113312,0.4833501875
10.36271517,11.66261768,-13.9238348,0.6149554253
10.36747064,11.86122227,-14.49571991,0.5288137794
10.37222611,11.81815147,-14.79242992,0.2464607358
10.37698158,11.40658569,-14.94078445,-0.1292124242
10.38173705,10.87298584,-14.689538,-0.4474578202
10.38649252,10.22453117,-13.96929836,-0.679561615
10.39124798,9.643074989,-13.00977707,-0.6771687865
10.39600345,9.379864693,-11.98804188,-0.5072783828
10.40075892,9.394221306,-11.05244732,-0.3397808075
10.40551439,9.473184586,-10.2149601,-0.3086741269
10.41026986,9.597611427,-9.604789734,-0.4067798555
10.41502533,9.729216576,-9.121439934,-0.7704889178
10.41978074,9.999606133,-8.702695847,-1.071984529
10.42453621,10.23649502,-8.370093346,-1.110269666
10.42929168,10.41835022,-8.080561638,-0.7752745152
10.43404715,10.55713367,-7.915457249,-0.2608176768
10.43880262,10.60499001,-7.781459332,0.2129612118
10.44355809,10.51406288,-7.668996811,0.5479564071
10.44831356,10.37527943,-7.616354465,0.7704889178
10.45306903,10.18624592,-7.616354465,0.8063812256
10.4578245,9.978070259,-7.704888821,0.7154539824
10.46257996,9.786644936,-7.855636597,0.3541377485
10.46733543,9.724431038,-8.106883049,-0.2799602449
10.4720909,9.738788605,-8.530412674,-1.232303619
10.47684637,9.822537422,-8.987442017,-2.160718918
10.48160184,10.01156998,-9.449256897,-2.761317253
10.48635726,10.16710377,-9.860821724,-2.933600664
10.49111272,10.26042366,-10.10488987,-2.730210543
10.49586819,10.17667484,-10.14317513,-2.354537487
10.50062366,9.82732296,-10.07617569,-1.969292998
10.50537913,9.284152031,-9.834501266,-1.59840548
10.5101346,8.554341316,-9.51386261,-1.337587833
10.51489007,7.652246952,-9.150154114,-1.270588875
10.51964554,6.764509678,-8.72423172,-1.320838094
10.52440101,6.01316309,-8.334200859,-1.402194023
10.52915647,5.381458282,-7.951349735,-1.536192179
10.53391194,4.78085947,-7.647460938,-1.658226132
10.53866741,4.280759811,-7.360322475,-1.665404558
10.54342288,3.823730469,-7.11625433,-1.533799291
10.54817835,3.416950703,-6.910471916,-1.392622828
10.55293382,3.225524902,-6.762116909,-1.239482164
10.55768929,3.223132133,-6.668796539,-1.040877819
10.56244476,3.254238844,-6.649653912,-0.8350951076
10.56720022,3.357130051,-6.692724705,-0.5407779217
10.57195564,3.467200041,-6.850651264,-0.2392822653
10.57671111,3.639483213,-7.173682213,0.08853443712
10.58146658,3.804588079,-7.515855789,0.3732803464
10.58622205,4.019941807,-7.903493404,0.6077769399
10.59097752,4.201796532,-8.307880402,0.7369893789
10.59573298,4.378865242,-8.673981667,0.8279166222
10.60048845,4.443471432,-9.032905579,0.9379864931
10.60524392,4.474578381,-9.394221306,1.012163997
10.60999939,4.53918457,-9.731609344,1.11984098
10.61475486,4.622933388,-10.02831936,1.21555388
10.61951033,4.66839695,-10.22453117,1.320838094
10.6242658,4.723432064,-10.30349445,1.414158225
10.62902127,4.857429981,-10.3226366,1.39022994
10.63377673,5.089533806,-10.24606609,1.170090318
10.6385322,5.441278458,-10.1024971,0.7441678643
10.64328767,5.972485542,-9.939785004,0.2584248483
10.64804314,6.762116909,-9.731609344,-0.1603191197
10.65279861,7.716853142,-9.487542152,-0.3756731451
10.65755408,8.829515457,-9.214759827,-0.500099957
10.66230955,10.17906761,-8.946763992,-0.4307080805
10.66706502,11.41137123,-8.752944946,-0.4498506486
10.67182048,12.41635704,-8.559126854,-0.5838487148
10.67657595,13.3902359,-8.327022552,-0.6963114142
10.68133142,14.06261826,-8.200202942,-0.7657032609
10.68608689,14.34018612,-8.099704742,-0.8470591903
10.69084231,14.39043522,-7.989634991,-0.8231309652
10.69559778,14.16311741,-7.826922894,-0.6532405615
10.70035324,13.80897903,-7.67138958,-0.4354937077
10.70510871,13.03131199,-7.49910593,-0.2632105052
10.70986418,12.54796219,-7.451249599,-0.1124626622
10.71461965,12.28235817,-7.381857872,-0.1411765367
10.71937512,12.18903828,-7.367500782,-0.2153540403
10.72413059,12.0598259,-7.369893551,-0.3254238665
10.72888606,11.86122227,-7.362715244,-0.3302095234
10.73364153,11.3635149,-7.314858913,-0.2656033039
10.738397,10.62891865,-7.219145775,-0.3493520916
10.74315246,9.659825325,-7.118647575,-0.4785645306
10.74790793,8.767302513,-7.039684296,-0.6125625968
10.7526634,8.097311974,-6.955935478,-0.679561615
10.75741887,7.692924976,-6.88893652,-0.6436693072
10.76217434,7.348358154,-6.79561615,-0.6053841114
10.76692981,7.061219692,-6.640082836,-0.6963114142
10.77168528,6.752545357,-6.498906136,-0.9762716293
10.77644074,6.451049805,-6.307480335,-1.349551916
10.78119621,6.171089649,-6.142375946,-1.765903115
10.78595168,5.836094379,-6.022734642,-2.098505497
10.79070715,5.532206059,-5.924628735,-2.292324066
10.79546262,5.206781864,-5.836094379,-2.311466694
10.80021809,4.843072891,-5.793023586,-2.175075769
10.80497356,4.479363918,-5.759523869,-1.909472466
10.80972903,4.158725739,-5.699703693,-1.787438512
10.8144845,3.75673151,-5.687739372,-1.832902193
10.81923996,3.448057413,-5.606383324,-1.880758643
10.82399543,3.282952785,-5.589633465,-1.825723648
10.8287509,3.266202927,-5.548955917,-1.521835208
10.83350637,3.318845034,-5.477170944,-0.9810572863
10.83826184,3.488735437,-5.405386448,-0.4402793646
10.84301731,3.842873096,-5.252245903,0.01196411345
10.84777278,4.366901398,-5.113461971,0.2416750938
10.85252824,5.005784988,-4.898108006,0.3397808075
10.85728371,5.670989513,-4.66839695,0.3349951804
10.86203918,6.333801746,-4.407579422,0.2632105052
10.86679465,6.843472958,-4.132404804,0.1411765367
10.87155012,7.094718933,-3.768695593,0.2177468538
10.87630559,7.164111137,-3.266202927,0.3996013701
10.88106106,6.953542709,-2.744567633,0.5838487148
10.88581653,6.506084919,-2.220539331,0.8925228715
10.890572,5.996413708,-1.746760488,1.478764415
10.89532746,5.544169903,-1.289731383,2.084148407
10.90008293,5.082355499,-0.8494520187,2.545963287
10.9048384,4.65403986,-0.5479564071,2.761317253
10.90959387,4.232903481,-0.433100909,2.610569477
10.91434934,4.14197588,-0.5551348329,2.294716835
10.91910481,4.271188259,-0.8063812256,1.859223247
10.92386028,4.393222332,-1.014556766,1.469193101
10.92861574,4.649254322,-1.210768223,1.174875975
10.93337121,4.926821709,-1.366301775,0.9690931439
10.93812668,5.331208706,-1.51944232,0.8446664214
10.94288215,5.824130535,-1.588834286,0.8231309652
10.94763762,6.187839508,-1.753939033,0.7369893789
10.95239309,6.350551128,-2.069791555,0.70348984
10.95714856,6.814758778,-2.746960402,0.1579262912
10.96190403,7.439285755,-3.665804386,-0.5982056856
10.9666595,7.853243828,-4.61814785,-1.241874933
10.97141502,8.035098076,-5.414957523,-1.641476393
10.97617048,7.989634991,-5.974878311,-1.95015049
10.98092595,7.561319351,-6.199803352,-2.081755638
10.98568142,6.855436802,-6.199803352,-2.177468538
10.99043689,5.967699528,-5.9485569,-2.222932339
10.99519236,5.161318302,-5.697310925,-2.120040894
10.99994783,4.508078098,-5.383851051,-1.725225091
11.0047033,3.991228104,-5.058426857,-1.332802176
11.00945877,3.610769272,-4.680361271,-1.201196909
11.01421423,3.383451223,-4.290330887,-1.306481123
11.0189697,3.318845034,-3.869194269,-1.540977836
11.02372517,3.352344513,-3.486342669,-1.825723648
11.02848064,3.460021496,-3.201596737,-2.100898266
11.03323611,3.550948858,-2.933600664,-2.153540373
11.03799158,3.560520172,-2.672782898,-2.146361828
11.04274705,3.479164124,-2.416750908,-2.263610125
11.04750252,3.299702406,-2.184647083,-2.404786825
11.05225798,3.421736479,-1.986042738,-2.52682066
11.05701345,3.474378586,-1.770688772,-2.342573404
11.06176892,3.677768469,-1.64626193,-2.167897224
11.06652439,3.830909014,-1.564906001,-1.983649969
11.07127986,4.063013077,-1.493121386,-1.849651933
11.07603533,4.244867325,-1.45483613,-1.691725612
11.0807908,4.359723091,-1.533799291,-1.536192179
11.08554627,4.39800787,-1.667797327,-1.538584948
11.09030179,4.414757729,-1.828116536,-1.574477315
11.09505726,4.522434711,-2.0769701,-1.691725612
11.09981272,4.58943367,-2.392822742,-2.017149448
11.10456819,4.61814785,-2.744567633,-2.287538528
11.10932366,4.694717884,-3.120240688,-2.392822742
11.11407913,4.737788677,-3.582055569,-2.220539331
11.1188346,4.766502857,-4.029513359,-1.887937069
11.12359007,4.996213913,-4.488935471,-1.55054903
11.12834554,5.338387489,-4.902893543,-1.289731383
11.133101,5.804987907,-5.233103275,-0.9882357717
11.13785647,6.326622963,-5.534598827,-0.9164510965
11.14261194,6.900900364,-5.795416355,-0.9834501147
11.14736741,7.343572617,-6.106483459,-0.9523434043
11.15212288,7.774280548,-6.381658077,-1.045663476
11.15687835,8.197810173,-6.601797581,-1.15094769
11.16163382,8.532805443,-6.800402164,-1.115055323
11.16638929,8.812766075,-7.018148899,-0.9906286001
11.17114481,9.229117393,-7.221538544,-0.866201818
11.17590028,9.781859398,-7.49910593,-0.9786644578
11.18065575,10.1527462,-7.791030407,-1.002592683
11.18541121,10.27956581,-7.996813297,-0.837487936
11.19016668,10.18146038,-8.200202942,-0.8303094506
11.19492215,9.942177773,-8.358129501,-0.9140582681
11.19967762,9.623932838,-8.456234932,-0.9164510965
11.20443309,9.293723106,-8.420342445,-0.7393822074
11.20918856,8.999405861,-8.379665375,-0.5096712112
11.21394403,8.71705246,-8.293522835,-0.457029134
11.2186995,8.329415321,-8.159524918,-0.5766702294
11.22345496,7.72163868,-7.958528042,-0.756131947
11.22821043,7.085147858,-7.611568928,-0.7010970116
11.23296595,6.644868374,-7.190432072,-0.5312066078
11.23772142,6.264409542,-6.79561615,-0.2608176768
11.24247689,5.874379635,-6.486942291,0.1028913707
11.24723236,5.517848969,-6.192625046,0.4139583111
11.25198783,5.381458282,-5.967699528,0.7010970116
11.2567433,5.536991596,-5.852844238,0.9403793216
11.26149877,5.800201893,-5.88395071,1.11984098
11.26625423,6.04187727,-6.025127411,1.091127157
11.2710097,6.333801746,-6.343372822,0.9882357717
11.27576517,6.802794933,-6.68076086,0.7369893789
11.28052064,7.503891945,-7.089933395,0.313459754
11.28527611,8.362915039,-7.585247993,-0.1938186288
11.29003158,9.150154114,-8.149953842,-0.5216353536
11.2947871,9.884750366,-8.757730484,-0.6340979934
11.29954257,10.45424175,-9.525827408,-0.708275497
11.30429804,10.89691448,-10.34417248,-0.5551348329
11.30905351,11.20558834,-11.28694439,-0.1292124242
11.31380897,11.48076344,-12.11486149,0.4977070987
11.31856444,11.88514996,-13.0384903,1.205982566
11.32331991,12.3924284,-13.90229988,1.691725612
11.32807538,12.72981644,-14.7397871,1.864008784
11.33283085,12.84706497,-15.62991714,1.627119422
11.33758632,12.75853062,-16.163517,1.138983607
11.34234184,12.29910851,-16.32144356,0.760917604
11.34709731,11.42812061,-15.92184162,0.7154539824
11.35185278,10.2221384,-14.83550072,0.9762716293
11.35660824,9.087940216,-13.16770267,1.462014675
11.36136371,8.255238533,-11.60279655,1.813759565
11.36611918,7.601997375,-10.21017456,1.880758643
11.37087465,7.133004189,-9.044869423,1.670190215
11.37563012,6.886543751,-8.051848412,1.127019525
11.38038559,6.788437843,-7.278966427,0.3732803464
11.38514106,6.829115868,-6.637690067,-0.380458802
11.38989658,6.93679285,-6.144768715,-0.9092726111
11.39465205,7.049255371,-5.680561066,-1.138983607
11.39940752,7.008577347,-5.280959606,-1.237089276
11.40416298,6.903293133,-4.936393261,-1.13419795
11.40891845,6.757331371,-4.634897232,-0.8877372146
11.41367392,6.61854744,-4.474578381,-0.6364908218
11.41842939,6.422336102,-4.474578381,-0.5479564071
11.42318486,6.151947021,-4.558327198,-0.626919508
11.42794038,5.943771362,-4.797609329,-0.8446664214
11.43269585,5.994020939,-5.221138954,-1.24666059
11.43745132,6.278766632,-5.828916073,-1.792224169
11.44220679,6.750152588,-6.498906136,-2.340180635
11.44696226,7.312466145,-7.200003147,-2.794816732
11.45171772,8.08295536,-7.984848976,-3.002992392
11.45647319,8.918049812,-8.831908226,-2.94317174
11.46122866,9.815358162,-9.710074425,-2.617748022
11.46598418,10.64566803,-10.57149029,-2.175075769
11.47073965,11.53819084,-11.43290615,-1.567298889
11.47549512,12.52403355,-12.34696484,-0.866201818
11.48025059,13.22513103,-13.09831142,-0.2368894368
11.48500606,13.60080433,-13.7539444,0.2105683982
11.48976153,13.32562923,-13.9740839,0.3445664644
11.494517,12.28475189,-13.77548027,0.1938186288
11.49927246,10.67438221,-13.2777729,-0.3014956415
11.50402798,8.848658562,-12.56949711,-1.024128079
11.50878345,7.11625433,-11.83490086,-1.524227977
11.51353892,5.443671703,-11.04287624,-1.665404558
11.51829439,4.060619831,-10.26281643,-1.658226132
11.52304986,2.811566591,-9.544969559,-1.710868239
11.52780533,1.667797327,-8.903693199,-1.789831281
11.5325608,0.7465606928,-8.286344528,-1.818545222
11.53731632,0.03349951655,-7.793423176,-1.732403636
11.54207179,-0.4115654826,-7.329215527,-1.452443361
11.54682726,-0.4522434771,-6.939185619,-1.052842021
11.55158272,-0.1531406492,-6.608976364,-0.6771687865
11.55633819,0.2656033039,-6.37687254,-0.5048855543
11.56109366,0.6867401004,-6.302694798,-0.5072783828
11.56584913,1.127019525,-6.333801746,-0.5742774606
11.57060465,1.684547186,-6.563512325,-0.5862415433
11.57536012,2.342573404,-6.960721016,-0.4953143001
11.58011559,3.091526747,-7.446464062,-0.2823530734
11.58487106,3.830909014,-7.843672752,-0.04307080805
11.58962653,4.503292084,-8.250452042,0.1914258152
11.594382,5.168497086,-8.635697365,0.3613162339
11.59913746,5.848058701,-9.068798065,0.5312066078
11.60389298,6.640082836,-9.506684303,0.650847733
11.60864845,7.52782011,-10.04746246,0.6915257573
11.61340392,8.559126854,-10.56191921,0.7513462901
11.61815939,9.556933403,-11.01177025,0.7968099117
11.62291486,10.40877819,-11.3635149,0.9978070259
11.62767033,11.19841003,-11.52144146,1.31126678
11.6324258,11.72961617,-11.50708389,1.557727575
11.63718132,12.11246777,-11.33480072,1.612762451
11.64193679,12.35892868,-11.00698376,1.507478237
11.64669226,12.5623188,-10.49013424,1.24666059
11.65144772,12.72024536,-10.0019989,0.8638089895
11.65620319,12.71545982,-9.406186104,0.2368894368
11.66095866,12.56471157,-8.786444664,-0.394815743
11.66571418,12.2799654,-8.164310455,-0.9786644578
11.67046965,11.91864967,-7.611568928,-1.442872047
11.67522512,11.6339035,-7.111468792,-1.775474429
11.67998059,11.44726372,-6.668796539,-1.914258122
11.68473606,11.37069321,-6.269195557,-1.875972986
11.68949153,11.23430252,-5.970092297,-1.782652855
11.69424705,10.94955635,-5.790630817,-1.639083505
11.69900252,10.5978117,-5.690132141,-1.47158587
11.70375798,10.26281643,-5.649454117,-1.418943882
11.70851345,10.06660461,-5.637490273,-1.457229018
11.71326892,9.958928108,-5.670989513,-1.509871125
11.71802439,9.8201437,-5.702096462,-1.450050473
11.72277986,9.805787086,-5.78584528,-1.363908887
11.72753538,9.925428391,-5.917450428,-1.227517962
11.73229085,10.01874828,-6.065805435,-1.026520967
11.73704632,10.14078236,-6.245266914,-0.7800601721
11.74180179,10.30588722,-6.403193474,-0.5455635786
11.74655726,10.33699417,-6.522834301,-0.327816695
11.75131278,10.05464077,-6.623332977,-0.2512463629
11.75606825,9.312865257,-6.668796539,-0.3828516304
11.76082371,8.604590416,-6.738188744,-0.7178468108
11.76557918,8.090133667,-6.769295216,-1.148554921
11.77033465,7.7838521,-6.845865726,-1.641476393
11.77509012,7.551748276,-6.908079147,-2.050648928
11.77984564,7.178467751,-6.970292568,-2.294716835
11.78460111,6.740581512,-7.058826923,-2.316252232
11.78935658,6.144768715,-7.118647575,-2.079362869
11.79411205,5.563312531,-7.135396957,-1.737189293
11.79886752,4.965106964,-7.118647575,-1.234696507
11.80362304,4.354937077,-7.068397999,-0.8327022791
11.8083785,3.795016766,-6.932007313,-0.5527420044
11.81313397,3.409772158,-6.74536705,-0.457029134
11.81788944,3.208775282,-6.534798622,-0.4402793646
11.82264491,3.151347399,-6.238088608,-0.5335994363
11.82740038,3.062813044,-5.845665932,-0.6101697683
11.8321559,3.00538516,-5.407779217,-0.6484549642
11.83691137,3.046063185,-4.948357105,-0.6412764788
11.84166684,3.034099102,-4.419543266,-0.5503492355
11.84642231,3.00538516,-3.881158352,-0.4139583111
11.85117778,3.081955671,-3.318845034,-0.313459754
11.8559333,3.215953588,-2.775674343,-0.1124626622
11.86068877,3.235096216,-2.261217356,0.2368894368
11.86544423,3.208775282,-1.828116536,0.8111668825
11.8701997,3.21356082,-1.428515077,1.631905079
11.87495517,3.187239647,-1.048056364,2.378465652
11.87971069,3.134597778,-0.7537391186,2.890529871
11.88446616,2.971885681,-0.4905286431,3.151347399
11.88922163,2.890529871,-0.2632105052,3.089133978
11.8939771,2.964707375,-0.1052841991,2.658426046
