Time (s),Acceleration x (m/s^2),Acceleration y (m/s^2),Acceleration z (m/s^2)
9.000542621,0.04587813624105023,-0.1810743986990632,-0.025821860316190836
9.005542587,0.14799051279001443,-0.242312373522364,-0.04888422078603074
9.010542553,0.24753983601456697,-0.3029725473796186,-0.07105912137490154
9.015542553,0.34271383505192593,-0.3627202201920349,-0.09141396113283183
9.020542586,0.43181087634134,-0.42122708853548946,-0.10908433935772768
9.025542619,0.5132797778136007,-0.4781709822491693,-0.12330491114853125
9.030542652,0.5857555798079966,-0.5332361181179013,-0.13343598083541333
9.035542652,0.648090302790678,-0.5861140023073621,-0.13898480850398343
9.040542652,0.6993778782173441,-0.6365050358416939,-0.13962090598098076
9.045542618,0.7389726140947023,-0.6841208011027033,-0.13518491857929177
9.050542618,0.7665007444440619,-0.7286869394436741,-0.12569100082319407
9.055542618,0.781864807869546,-0.7699464763605622,-0.11132287785588314
9.060542651,0.7852408010419114,-0.8076634151167084,-0.09242402790397335
9.065542651,0.7770682524527605,-0.8416264032981233,-0.0694826220443829
9.070542651,0.7580335532903408,-0.8716522772902072,-0.04311201824511334
9.075542651,0.7290470609188344,-0.8975893028509067,-0.014027731813049187
9.080542651,0.691214655987135,-0.9193199512867494,0.01697810398186372
9.085542651,0.6458045889767552,-0.9367630764326523,0.049063719118129775
9.090542617,0.5942105955279378,-0.9498753848752236,0.08136505409435406
9.095542617,0.5379123849281934,-0.9586521192373831,0.11302244472332158
9.100542617,0.47843469980833314,-0.9631269024165569,0.14320571983451533
9.10554265,0.4173061938535523,-0.9633707213157998,0.17113693965163748
9.110542683,0.3560193692196052,-0.9594900631598047,0.19611018703428357
9.115542683,0.2959927542135185,-0.9516242555516982,0.21750801980220666
9.120542649,0.2385363886845041,-0.9399421013927781,0.23481437994151494
9.125542615,0.1848215279438061,-0.9246379396764786,0.2476239186946638
9.130542615,0.13585528785831802,-0.9059273004104479,0.25564782614742737
9.135542615,0.09246074881083802,-0.884042352702196,0.25871634846600733
9.140542648,0.05526283004765169,-0.8592273646146944,0.256778240702461
9.145542648,0.02468005155663198,-0.8317343974152501,0.24989744679365994
9.150543548,0.0009221255103858809,-0.8018194427224296,0.2382473282218181
9.155543548,-0.016006835064722495,-0.7697391788375394,0.22210278090994018
9.160543548,-0.026299837967575797,-0.7357484751840766,0.2018305843759095
9.165543548,-0.03033372821751291,-0.700098716455096,0.1778783170814145
9.170543514,-0.028651660294460833,-0.6630369565207105,0.15076215158056888
9.175543514,-0.021941961855211967,-0.6248058512616554,0.12105382088503283
9.180543514,-0.011014076227536002,-0.5856442632361176,0.08936703091749439
9.185543547,0.0032276981979734165,-0.5457883832519315,0.05634358550853509
9.190543547,0.019811939778396487,-0.5054731785940344,0.022639487116415447
9.195543547,0.03772857399960947,-0.4649339587986618,-0.011088727759021701
9.200543513,0.05595735971587841,-0.4244078497569365,-0.044197170761572376
9.205543513,0.0734956893136698,-0.38413498427185333,-0.07606707565587824
9.210543513,0.08938503474942305,-0.34435924661486583,-0.10611637002323783
9.215543546,0.10273542058139938,-0.3053284426632836,-0.13381018668490754
9.220543546,0.11274736949561272,-0.2672937995054017,-0.1586701891610995
9.225542879,0.11873084275538431,-0.23050872616815266,-0.18028260723593137
9.230542879,0.12012078403126832,-0.1952267914279857,-0.1983048885119382
9.235542879,0.11648896770983966,-0.16169889892033024,-0.212470874934805
9.240542879,0.10755195044621728,-0.1301696676331263,-0.22259441917752645
9.245542845,0.09317502570335678,-0.10087305991872486,-0.22857137353244514
9.250542811,0.07337218310635615,-0.07402734022217841,-0.23037991727883111
9.255542811,0.04830217523652003,-0.04982949463875861,-0.22807923371065766
9.260542811,0.018260891923624286,-0.028449291126653658,-0.22180659658530333
9.265542844,-0.016329665095657638,-0.01002320817822378,-0.21177296948302748
9.270542844,-0.05493542672737731,0.005351499521550712,-0.19825725635948552
9.275542844,-0.09692685850664412,0.017622302106550213,-0.1815993677715663
9.28054281,-0.1415975852453328,0.026786155531884123,-0.16219228757945423
9.285542776,-0.18818444253899702,0.03289322559001692,-0.14047334179909934
9.290542742,-0.23588831542397104,0.03604930808402352,-0.11691488492057057
9.295542742,-0.28389510338410934,0.036416727192230214,-0.09201462735431203
9.300541875,-0.3313961568319525,0.03421355823018868,-0.06628582802010644
9.305541908,-0.3776075642594329,0.029711095609533136,-0.040247567110696505
9.310541941,-0.42178772958705685,0.023229566431348683,-0.014415296561805612
9.315541941,-0.4632527620177371,0.01513216977336122,0.010708158079337485
9.320541941,-0.5013893012306688,0.005817596951389387,0.0346409987001507
9.325541907,-0.5356645140941868,-0.004288744929130168,0.05693014344017566
9.33054124,-0.5656331201187851,-0.01474452820626787,0.0771581195859522
9.33554034,-0.5909414261078929,-0.025100999012112282,0.09494910677606838
9.340540373,-0.6113284699007017,-0.03491382438075286,0.10997410187360956
9.345539473,-0.6266244823689003,-0.04375393371395338,0.12195519407594659
9.350538806,-0.6367469696511991,-0.05121799709976903,0.1306689467707157
9.355537872,-0.641694788740145,-0.05693819465784331,0.1359488828579373
9.360536938,-0.6415406357989776,-0.06059095198993252,0.1376870670823556
9.365536004,-0.636422387442189,-0.06190434658367475,0.1358347777984758
9.370535104,-0.6265337325337857,-0.06066392934325542,0.13040226554383524
9.37553577,-0.6121145092803368,-0.056716755221914,0.1214576077213754
9.380535803,-0.5934411237403426,-0.04997347742909672,0.10912468561918705
9.385535836,-0.5708173760356137,-0.04040843003389391,0.09358032873214026
9.390535202,-0.5445659644164028,-0.028057702203229486,0.07505068887741792
9.395535202,-0.5150208790994224,-0.013015291057909514,0.05380692034957935
9.400535202,-0.48252083991050604,0.0045724948986019765,0.030160250051802624
9.405536302,-0.4474038745816257,0.024514129341170497,0.004456521749907141
9.410535635,-0.41000307726968466,0.046581137086946584,-0.022929707553627672
9.415534868,-0.3706435292011925,0.07051716583440944,-0.05160144860161294
9.420534501,-0.32964030691366175,0.0960474603735256,-0.08114586868959321
9.425534501,-0.2872974521779566,0.12288833706397925,-0.11114110673060935
9.430534501,-0.24390773662682252,0.15075627906293376,-0.14116320663601928
9.435534501,-0.19975302851711424,0.17937631561096667,-0.1707930253243267
9.440534501,-0.15510506187707807,0.20848940538040125,-0.19962293616485216
9.445534501,-0.11022641902500153,0.2378586080331232,-0.22726312513739277
9.450534467,-0.06537156241900278,0.2672738943888845,-0.25334727587918476
9.455534467,-0.020787785601795717,0.29655551023645915,-0.2775374658372652
9.460534467,0.023284010015524513,0.32555586961323296,-0.2995281449867792
9.4655345,0.06660877038701678,0.35416000915348006,-0.3190491295396961
9.4705345,0.1089570031655616,0.3822846849622032,-0.33586760193563275
9.4755345,0.15010475314422816,0.40987623610212787,-0.34978915511091524
9.480535133,0.18983382113489936,0.43690737243938665,-0.36065795100009324
9.485535999,0.2279321938637711,0.46337306788966176,-0.3683560849876246
9.490535965,0.26419464286377237,0.4892857530349498,-0.37280226721508114
9.495536865,0.2984234466425719,0.5146700054607126,-0.3739499535410453
9.500537531,0.330429193026696,0.5395569351488404,-0.3717850831298092
9.505538464,0.3600316269331824,0.5639784592140565,-0.36632360039562206
9.510539397,0.3870605212359084,0.5879616575778102,-0.3576089482756732
9.51554033,0.4113565626579707,0.6115233994913051,-0.3457097105590071
9.52054123,0.432772258625337,0.6346654289932852,-0.3307175501334244
9.525540563,0.451172883090771,0.6573700930640687,-0.31274553957743956
9.530540529,0.46643748803322194,0.6795968868489868,-0.2919269172149057
9.535540529,0.47846001098649227,0.7012799739950769,-0.26841423499567396
9.540541195,0.4871505056344689,0.7223268161345826,-0.24237880414545115
9.545541228,0.4924365106911416,0.7426180140900683,-0.2140102984840011
9.550541228,0.4942645517394966,0.7620084251425162,-0.1835163486602204
9.555540094,0.4926017432665508,0.780329576427922,-0.1511219550131854
9.560540727,0.4874374277535918,0.7973933450332366,-0.11706856128960173
9.56554146,0.478784760549863,0.8129968218895014,-0.08161266284542858
9.570541826,0.4666821283493735,0.8269282210874328,-0.045023866219679014
9.575541826,0.4511942789726294,0.8389736415304417,-0.007582365919970729
9.580541859,0.432413042519498,0.8489244372266032,0.030424146717056594
9.585541892,0.41045753879455826,0.8565849096728166,0.06870408196878276
9.590541925,0.38547379213606886,0.861780004419798,0.10696595538353623
9.595541925,0.35763371098859004,0.8643626773159051,0.14492265790642744
9.600541925,0.3271334340691544,0.8642205964470888,0.1822958239508345
9.605541891,0.2941910950418972,0.8612818644867951,0.21882011020441489
9.610541857,0.25904410864706034,0.8555194827016711,0.25424719535768886
9.615541857,0.22194612710371484,0.846954330285367,0.2883493277303899
9.62054189,0.18316385010303102,0.8356564973366615,0.32092228361140196
9.625541923,0.1429738901658108,0.8217448815718142,0.3517876499106149
9.630541923,0.10165989506776206,0.8053850320832039,0.3807944039915152
9.635541923,0.05951010950078504,0.7867852928445639,0.40781982389745264
9.640541923,0.016815519273448064,0.7661913603218762,0.43276981540648546
9.645541923,-0.02613133493004721,0.7438794216266805,0.45557877945388064
9.650541923,-0.06903685630261588,0.7201480822416672,0.4762091562280688
9.655541889,-0.1116062599094423,0.6953093267686283,0.494650766360237
9.660541889,-0.15354293803252517,0.6696787839987525,0.510920027447254
9.665541889,-0.194547509961993,0.643565589983306,0.5250590653015541
9.670541922,-0.23431678209136367,0.6172621598266719,0.5371346785308777
9.675542588,-0.27254285751893365,0.5910341897678634,0.5472370676962309
9.680542588,-0.3089126209291722,0.5651112142719468,0.5554782173741193
9.685542554,-0.34310778764715066,0.5396780368954553,0.561989824325545
9.690542554,-0.3748056533460823,0.5148673378455764,0.5669206935304699
9.695542554,-0.403680623686414,0.4907537354574083,0.5704335671429877
9.700542587,-0.42940655150457296,0.4673495439635118,0.5727013987999843
9.705542587,-0.45165986964990057,0.4446024270470517,0.5739031275343276
9.710542587,-0.47012348143723753,0.4223950970365632,0.5742190354975506
9.715542587,-0.4844913547068938,0.4005471543814123,0.5738257899654503
9.720542587,-0.4944737542814684,0.3788191021375508,0.5728912750012214
9.725542587,-0.4998030359204776,0.35691850640488404,0.5715693169409849
9.730542553,-0.5002399091489651,0.3345082072214264,0.5699944069367697
9.735542519,-0.49558005549749157,0.31121641733066385,0.5682765282496274
9.740542519,-0.48566096404060016,0.286648480913684,0.5664962074985667
9.745542552,-0.47036882067122743,0.26040000286940507,0.5646999251625814
9.750542585,-0.4496452650334805,0.23207100295324828,0.5628960358684441
9.755542585,-0.42349381271763914,0.201280699446469,0.561051357570748
9.760542585,-0.3919857320022255,0.16768248606595362,0.5590885870402031
9.765542551,-0.3552651642116306,0.1309786360758554,0.5568846867883178
9.770542517,-0.3135532835403655,0.09093425142680024,0.5542703677967613
9.775541817,-0.26715130444290514,0.047389974148348356,0.5510307658370898
9.780541817,-0.21644216123138144,0.00027299365886378674,0.5469073783262978
9.78554185,-0.1618907052398199,-0.050394081798780306,0.5416012940762637
9.790541883,-0.10404229078794558,-0.10448686841597513,0.5347777107455831
9.795541916,-0.04351965323363879,-0.1617756730503268,0.5260716962862226
9.800541916,0.01898197981255389,-0.2219250049121183,0.5150951141157127
9.805541916,0.08270156188445435,-0.28449625776755777,0.5014446001782734
9.810541882,0.14682066197451482,-0.3489535829813643,0.4847104559728639
9.815541882,0.210473596314571,-0.4146728659462633,0.46448630608641034
9.820541882,0.2727591564092177,-0.4809536118693793,0.44037936024126423
9.825541915,0.33275379549176826,-0.5470334460197682,0.4120211140156646
9.830541915,0.3895260992081789,-0.6121048429591378,0.3790783140224377
9.835541915,0.442152330006559,-0.6753336228230982,0.3412639992712205
9.840541881,0.48973279913055806,-0.7358786930294237,0.2983484111098191
9.845541847,0.5314087867349389,-0.792912472423526,0.2501695429049117
9.850541813,0.5663797010131144,-0.8456414126696926,0.19664308204758077
9.855541813,0.5939201422445578,-0.893326028986437,0.13777148518058102
9.860541813,0.6133965174764853,-0.9352998687971075,0.07365192580215695
9.865541846,0.624282836442052,-0.970986881273929,0.004482863138221664
9.870541879,0.6261753106440945,-0.9999167009446561,-0.06943099772742217
9.875541912,0.6188053772968357,-1.021737422038538,-0.14767555354766868
9.880541912,0.6020507792637116,-1.0362255148167148,-0.2297261191908643
9.885541912,0.5759443511197497,-1.0432926186649256,-0.31494833033311714
9.890541878,0.5406801892377664,-1.0429890369873924,-0.40260120553210615
9.895541844,0.49661692018434767,-1.0355038533954615,-0.4918423961660564
9.90054181,0.4442778277237905,-1.021161684317657,-0.5817356104638804
9.90554181,0.3843476558539522,-1.000416176424564,-0.6712601590029063
9.910541843,0.3176659739665997,-0.9738404446740646,-0.7593225339605648
9.915541876,0.24521706891897796,-0.9421147257401276,-0.8447699029202753
9.920541909,0.16811641483201864,-0.9060115905251689,-0.9264053699809763
9.925542575,0.08759386248080776,-0.8663791172785311,-1.0030048320157643
9.930542575,0.0049737844228602435,-0.8241224723465436,-1.0733352352895618
9.935542541,-0.07834749359816989,-0.7801843772336579,-1.1361740158928018
9.940542541,-0.16092655553847288,-0.73552495696243,-1.1903294852699062
9.945542541,-0.24129955567850436,-0.6911014650819894,-1.2346618987025826
9.950542574,-0.3180101191960967,-0.6478483659732478,-1.2681049198659409
9.955542574,-0.38963788075648653,-0.6066582272912941,-1.2896871693740044
9.960542574,-0.4548270318047596,-0.5683638366348436,-1.2985535210574326
9.96554254,-0.5123142357174895,-0.5337219089235813,-1.2939857877120526
9.970542506,-0.560955273047588,-0.5033986966571485,-1.275422418559952
9.975542472,-0.5997497958015922,-0.47795775619500597,-1.2424768139816156
9.980542472,-0.6278635999722532,-0.45785006071472123,-1.1949538503012813
9.985542472,-0.6446478697728929,-0.4434065854123379,-1.1328642000936977
9.990542505,-0.6496549047037874,-0.43483342418679233,-1.0564360330263558
9.995542538,-0.6426499098819176,-0.43220943206963774,-0.9661236901809024
10.00054257,-0.6236185085381869,-0.4354863273282792,-0.8626129432592715
10.00554257,-0.5927697216464837,-0.44449113449902194,-0.7468224813478509
10.01054257,-0.5505342534326899,-0.45893080667392233,-0.6199013133639472
10.01554254,-0.49755802395887927,-0.47839883326842,-0.483221834117934
10.02054254,-0.4346910007914098,-0.5023836184026836,-0.3383683754354851
10.02554254,-0.36297149842364645,-0.5302784042599814,-0.18712114971283156
10.03054257,-0.283606232789635,-0.5613925121068568,-0.03143558987859014
10.03554257,-0.19794653493547693,-0.5949636794057094,0.12658280453305396
10.04054257,-0.10746123890885184,-0.6301712823354241,0.28470789167613136
10.04554257,-0.013706860260498568,-0.6661502463212181,0.440626238277094
10.05054257,0.0817042307379313,-0.7020054602776684,0.5919739302480415
10.05554257,0.17713686687093075,-0.7368265211895233,0.7363762557253909
10.06054254,0.27096654997662284,-0.7697026432133086,0.8714895615507006
10.06554254,0.3616124800552219,-0.7997375694751282,0.995044487032591
10.07054254,0.4475693097862586,-0.8260643254928549,1.1048897008361755
10.07554257,0.5274368251374352,-0.8478596506685631,1.1990352109596816
10.08054257,0.5999468207300568,-0.8643579381685026,1.2756942848082233
10.08554257,0.6639865331825509,-0.874864503727671,1.3333230057199295
10.09054254,0.718618112743203,-0.8787679915215444,1.3706565030805056
10.0955425,0.7630937475334937,-0.8755517122558194,1.386740925342331
10.10054247,0.796866197748105,-0.8648036977701363,1.3809602797789455
10.10554247,0.8195946396931134,-0.8462252509512286,1.3530573407690427
10.11054247,0.8311458529439444,-0.81963777270467,1.303147930021593
10.1155425,0.8315909029250884,-0.7849876612297171,1.2317279962275012
10.12054253,0.8211975745431829,-0.7423491034853984,1.1396730660019045
10.12554257,0.8004189011098019,-0.6919246138415991,1.0282298004243473
10.13054257,0.7698782075999664,-0.6340432188907911,0.8989995700642945
10.13554257,0.7303511476625338,-0.5691562380983751,0.7539141540697466
10.14054253,0.682745257739933,-0.4978306649994396,0.5952038726529987
10.14554253,0.628077577959111,-0.42074021067294765,0.42535867219947765
10.15054253,0.5674508997634117,-0.33865412808132356,0.2470828911375793
10.15554216,0.5020291985638569,-0.25242399063229365,0.06324463390236268
10.16054216,0.4330127996003614,-0.16296864958536683,-0.12317913938014927
10.16554217,0.3616138077350903,-0.07125764208122833,-0.30916054711580043
10.17054213,0.2890323056557769,0.02170663538902583,-0.4916803667261407
10.1755421,0.2164337878769636,0.1149076345656685,-0.667787809311832
10.18054206,0.1449282489578685,0.20733385732242243,-0.8346590110460177
10.18554206,0.07555128462123495,0.2979981391950859,-0.9896527910253768
10.1905421,0.00924749773622497,0.38595658472048633,-1.130362304316688
10.19554213,-0.05314356663066209,0.47032671726406716,-1.2546613449162205
10.20054216,-0.11089879546889726,0.5503044082147198,-1.3607442187123797
10.20554216,-0.1634200833669768,0.6251791623544168,-1.4471583027622703
10.21054216,-0.2102400464782247,0.6943473584881303,-1.5128286256280798
10.21554213,-0.2510248529164429,0.7573230785001462,-1.5570740349472456
10.22054209,-0.28557418939770124,0.8137462057515669,-1.5796147520223642
10.22554206,-0.3138184303118066,0.863387536524236,-1.5805713367759924
10.23054206,-0.33581312752364106,0.9061507259334144,-1.5604552882297706
10.23554206,-0.3517309962658228,0.9420709800871656,-1.5201516775972257
10.24054209,-0.36185163215501076,0.9713105048747263,-1.4608943508320211
10.24554213,-0.36654925309801684,0.9941508231296478,-1.3842343486281672
10.25054149,-0.36627881342989466,1.0109821707437572,-1.2920022819521781
10.25554149,-0.3615608818237837,1.0222902741617703,-1.1862654793247571
10.26054149,-0.352965705853413,1.0286408930216049,-1.0692807968234856
10.26554146,-0.3410969027250399,1.03066258003596,-0.9434440590408169
10.27054146,-0.3265752179434509,1.029028164176972,-0.8112371804597825
10.27554146,-0.31002278344155765,1.024435501877231,-0.6751740979712127
10.28054149,-0.29204828590338333,1.0175880627887979,-0.5377467177344027
10.28554149,-0.27323342524095706,1.0091759197003407,-0.4013721320231603
10.29054149,-0.254121001845116,0.9998576952642807,-0.26834238361951307
10.29554146,-0.23520491892756273,0.9902439813616084,-0.140778038737987
10.30054142,-0.21692232394224512,0.9808826912549399,-0.0205867686933779
10.30554179,-0.19964804263579541,0.9722467316197316,0.0905719681660962
10.31054179,-0.18369138258188425,0.9647242935935111,0.19131521022416803
10.31554182,-0.1692953018457884,0.958611963490173,0.280557011222548
10.32054186,-0.15663785547924255,0.9541107507591493,0.3575207049775518
10.32554189,-0.1458357522615942,0.9513250293973508,0.42174269868308445
10.33054189,-0.13694978130880006,0.9502642944225794,0.4730678656324806
10.33554122,-0.12999180614805617,0.9508475502271734,0.5116368990419545
10.34054052,-0.12493297349889303,0.9529100739538403,0.5378662656466806
10.34553962,-0.12171274468073229,0.9562122352273561,0.5524216443199138
10.35053895,-0.12024832882169036,0.9604500047883014,0.5561859367752578
10.35553809,-0.12044408004619236,0.9652667504456706,0.5502230842183368
10.36053725,-0.12220041863869843,0.9702659009416662,0.5357390102798543
10.36553659,-0.12542185249533733,0.975024057808697,0.5140410361139771
10.37053569,-0.13002371239574742,0.9791041518906992,0.4864970816342968
10.37553479,-0.1359372725911113,0.982068273188935,0.4544958838489665
10.38053389,-0.14311300377899264,0.9834898469169153,0.41940933760102206
10.38553389,-0.1515217935210373,0.9829648810491386,0.3825579059986117
