Time (s),Acceleration x (m/s^2),Acceleration y (m/s^2),Acceleration z (m/s^2)
6.000520408,5.155934811,-10.44885826,-4.400400639
6.005296606,5.713462353,-11.10269737,-4.551746845
6.010059523,6.004788399,-11.61296654,-4.691727161
6.014849106,5.980860233,-11.89232826,-4.825725079
6.019625304,5.943173409,-11.8971138,-4.773082733
6.02438822,5.857031822,-11.66142082,-4.777270317
6.029177804,5.413163185,-11.20439243,-4.746761799
6.033954002,4.603192329,-10.68156052,-4.58943367
6.038730252,3.828516245,-10.134202,-4.264608383
6.043506502,3.158525944,-9.601201057,-3.766901016
6.048282752,2.651247501,-9.12084198,-3.260818958
6.053045668,2.342573404,-8.731410027,-2.933002472
6.0578352,2.304288149,-8.428119659,-2.813361168
6.06261145,2.25104785,-8.192426682,-2.770290375
6.067374366,2.08534503,-8.076972961,-2.600998163
6.072163898,1.925624013,-8.038687706,-2.288136721
6.076940148,1.799402595,-7.971688747,-1.880160451
6.081703064,1.640279889,-7.866404533,-1.432702541
6.086492595,1.475773335,-7.780262947,-1.028913736
6.091268845,1.33399868,-7.684549809,-0.7310073376
6.096031762,1.234696507,-7.593622684,-0.5862415433
6.100821293,1.220339537,-7.51645422,-0.5718846321
6.105597543,1.214357495,-7.391428947,-0.6873382926
6.110373793,1.208375454,-7.304689407,-0.8548358679
6.115149991,1.088136077,-7.237092018,-1.022333503
6.119926241,0.9397810698,-7.189235687,-1.15094769
6.124702491,0.8297112584,-7.141379356,-1.308874011
6.129478689,0.7663014531,-7.083951473,-1.466800332
6.134254939,0.7274180651,-7.011568546,-1.645065546
6.139031189,0.6735795736,-6.953542709,-1.865205288
6.143807387,0.6717849374,-6.905087948,-2.085943222
6.148583637,0.6616154313,-6.851847649,-2.224726915
6.153359887,0.6652047038,-6.803991318,-2.383251429
6.158136137,0.6783652306,-6.745965004,-2.513062
6.162912335,0.7160521746,-6.678368092,-2.556132793
6.167688585,0.7531409264,-6.625127792,-2.623729944
6.172464835,0.7818548083,-6.61555624,-2.599801779
6.177241033,0.7968099117,-6.558128834,-2.451446772
6.182017283,0.7507480979,-6.577271461,-2.221137524
6.186793533,0.8147560954,-6.635297298,-1.942971945
6.191569731,0.8787640929,-6.692724705,-1.597807288
6.196345981,0.8285148144,-6.794419765,-1.270588875
6.201122231,0.7214360237,-6.929614544,-1.020538807
6.205898429,0.6849454641,-7.084549427,-0.7854440212
6.210674679,0.7489534616,-7.334599495,-0.6035895348
6.215450929,0.8937192559,-7.575078487,-0.4019941986
6.220227179,1.190429211,-7.820342541,-0.2255235314
6.225003377,1.544566989,-8.060222626,-0.02572284266
6.229779627,1.817348838,-8.190033913,0.1740778536
6.234555877,2.017747641,-8.285746574,0.2452643216
6.239332075,2.350350142,-8.246863365,0.1812563092
6.244108325,2.306680918,-8.217551231,0.1142572835
6.248884575,2.320439816,-8.160123825,0.008374879137
6.253660773,2.275574446,-8.246863365,-0.3320041299
6.258437023,2.136790514,-8.160123825,-0.4755735099
6.263213273,1.651047587,-8.040482521,-0.4923232496
6.267989523,1.174277663,-7.950153351,-0.5282155871
6.27276572,0.9397810698,-7.907082558,-0.7477570772
6.27754197,0.890130043,-7.97467947,-1.183848977
6.28231822,0.7495517135,-8.095517159,-1.687538147
6.28709447,0.4953143001,-8.394619942,-2.242074728
6.291870668,0.6699903607,-8.567501068,-2.545365095
6.296633585,0.5611169338,-8.635098457,-2.506481647
6.301423116,0.2524427772,-8.87617588,-2.557329178
6.306199366,0.05204389244,-9.291330338,-2.719442844
6.310962283,-0.04905286431,-9.753743172,-3.246462107
6.315751866,0.1627119333,-10.22991467,-3.870988846
6.320528064,0.166301176,-10.7114706,-4.287938118
6.325290981,0.337986201,-11.15414238,-4.566701889
6.330080564,0.2416750938,-11.51605701,-4.130012035
6.334856762,-0.3637090325,-11.73021507,-2.873780012
6.339619731,-0.2297109663,-11.85523987,-1.977069736
6.344409262,0.1274178028,-11.91745281,-1.129412293
6.34918546,0.3302095234,-12.16810131,-0.0933200866
6.353948429,0.2769692242,-12.69870949,1.020538807
6.35873796,-0.1471585929,-13.63430309,2.069791555
6.36351421,-0.8315058947,-14.75414467,3.081955671
6.368277127,-1.339382529,-15.56949902,2.950948477
6.373066658,-1.491924882,-16.75933075,0.6532405615
6.377842908,-0.4145565331,-18.06102562,-2.033899307
6.382605825,0.6969096065,-19.39143562,-5.441278458
6.387395356,1.265205026,-20.40479469,-7.867002487
6.392171606,0.8464609981,-20.47897339,-7.173682213
6.396934523,0.328414917,-19.06002808,-4.004986763
6.401724054,0.9020941257,-16.27119446,-0.5066801906
6.406500304,2.678765059,-13.27119255,1.439880967
6.41126322,3.485146284,-11.21695423,2.21216464
6.416052752,3.108276606,-10.11446095,1.786242127
6.420829002,3.528815269,-9.29432106,1.044467092
6.425591918,3.364308596,-8.639286041,0.8530412912
6.43038145,2.310868502,-8.251648903,0.01794617064
6.4351577,1.647458434,-8.748159409,-1.427318692
6.439920616,1.244866014,-10.49312592,-2.0769701
6.444710148,1.838884234,-13.79641724,-2.417947292
6.449486398,1.861017823,-17.41017723,-1.451246977
6.454249314,1.911865234,-19.76651001,-0.5766702294
6.459038898,2.181656122,-20.64288139,-0.4959124923
6.463815095,3.05324173,-19.41715813,0.3146561682
6.468578012,4.186243057,-16.90947914,1.708475351
6.473367595,4.97467804,-14.13799286,2.979064226
6.478143793,4.944169998,-11.68175983,3.932005882
6.482906762,4.37288332,-9.712467194,4.207778454
6.487696293,3.490530014,-8.288737297,3.879961967
6.492472491,2.064407825,-7.776075363,3.512663603
6.49723546,0.5282155871,-8.088936806,3.386442184
6.502024991,-0.9810572863,-9.041280746,3.538984776
6.506801241,-2.635694027,-10.31186962,3.807579041
6.511564158,-3.972085476,-11.48195934,4.051048756
6.516353689,-4.689334393,-12.20578861,3.881756544
6.521129939,-4.980062008,-12.53898907,3.557528973
6.525892856,-5.258825779,-12.52941799,3.050250769
6.530682387,-5.125426292,-12.37508011,2.387438774
6.535458637,-4.588835716,-12.10828114,1.659422517
6.540221554,-3.846462488,-11.78824043,1.046261668
6.545011085,-2.913261652,-11.51605701,0.5270192027
6.549787335,-1.77846539,-11.38265705,0.2237289101
6.554550252,-0.665802896,-11.28395367,0.1651047617
6.559339783,0.1848455518,-11.04108143,0.1944168359
6.564116033,0.8069794178,-10.74556828,0.0951147005
6.56887895,1.332203984,-10.4793663,-0.2147558331
6.573668481,1.728814363,-10.17906761,-0.5587241054
6.578444731,2.069193363,-9.976275444,-0.8243274093
6.583207648,2.381456852,-9.782457352,-0.9314061999
6.587997231,2.595614433,-9.550951958,-0.932602644
6.592773429,2.669791937,-9.262018204,-1.053440213
6.597536345,2.553141832,-8.958129883,-1.297508121
6.602325877,2.26540494,-8.790034294,-1.569691658
6.607102127,1.963909149,-8.675178528,-1.822732687
6.611865043,1.758724689,-8.680562019,-1.932204247
6.616654627,1.625923038,-8.714659691,-1.90229404
6.621430825,1.559522152,-8.752944946,-1.815554142
6.626207075,1.536790371,-8.801400185,-1.734198213
6.630983325,1.589432478,-8.825327873,-1.719841242
6.635759523,1.57866478,-8.738588333,-1.80658114
6.640535773,1.591825247,-8.560322762,-1.926222205
6.645312023,1.708475351,-8.246863365,-2.128415823
6.65008822,1.901097536,-7.966304779,-2.335993052
6.65486447,1.960918188,-7.706085205,-2.547757864
6.65964072,2.220539331,-7.430910587,-2.702693224
6.66441697,2.337189436,-7.262216568,-3.005983353
6.669179887,2.430509567,-7.218547821,-3.265604734
6.673969418,2.443670034,-7.28554678,-3.471985579
6.678745668,2.471785784,-7.391428947,-3.573082447
6.683521866,2.539981127,-7.569694519,-3.563511133
6.688298116,2.684148788,-7.781459332,-3.42472744
6.693074366,2.609971285,-8.017151833,-3.251846075
6.697850564,2.483151674,-8.249256134,-3.107080221
6.702626814,2.34137702,-8.471190453,-2.947957516
6.707403064,2.228316069,-8.615956306,-2.803191662
6.712179314,2.063211441,-8.641080856,-2.595614433
6.716955512,1.82632184,-8.569295883,-2.474178553
6.721731762,1.574477315,-8.449654579,-2.353341103
6.726508012,1.780260086,-8.179265976,-1.975873351
6.73128421,2.023729801,-7.869993687,-1.689332843
6.73606046,2.071586132,-7.591229916,-1.502094388
6.74083671,2.229512453,-7.28255558,-1.16769743
6.745612908,2.483151674,-7.007380962,-0.8093722463
6.750389158,2.702693224,-6.75613451,-0.5371887088
6.755152075,2.855833769,-6.577869415,-0.2781656384
6.759941606,2.971885681,-6.505486488,0.008973085321
6.764717856,2.880958557,-6.65503788,-0.1537388563
6.769494106,2.965903759,-6.938587666,-0.3744767308
6.774270356,3.527618885,-7.13061142,-0.4253242314
6.779046554,3.887140274,-7.298109055,-0.8835497499
6.78380947,4.150351048,-7.412964344,-1.484148264
6.788599054,3.999004841,-7.711469173,-2.294716835
6.793375252,4.025325775,-7.999804497,-2.784049034
6.79813822,4.672584534,-8.282755852,-2.825923443
6.8029277,4.724030018,-8.629117012,-3.286541939
6.80770395,4.570889473,-8.913862228,-3.467798233
6.8124802,4.644468784,-9.135198593,-3.247060299
6.81725645,4.487140656,-9.06341362,-2.526222467
6.822032648,3.85244441,-8.867800713,-1.990828395
6.826808898,3.224328518,-8.653044701,-1.810170293
6.831585148,2.548954248,-8.350951195,-1.710868239
6.836361398,1.952543259,-8.06799984,-1.765304923
6.841124314,1.541576028,-8.073383331,-2.094317913
6.845913845,1.05523479,-8.05065155,-2.206780672
6.850690095,0.561715126,-8.003992081,-1.993221283
6.855453012,-0.17587246,-8.024929047,-1.980060697
6.860242543,-0.8368897438,-8.137989998,-2.067398787
6.865018793,-1.232303619,-8.277970314,-2.204387903
6.86978171,-1.32801652,-8.446663857,-2.38624239
6.874571241,-1.433898926,-8.644669533,-2.649452925
6.879347491,-1.657029629,-8.751151085,-2.720639229
6.884110408,-1.613360643,-8.746364594,-2.523829699
6.888899939,-1.20717907,-8.639286041,-2.204387903
6.893676189,-0.4821537733,-8.37787056,-1.771885157
6.898452387,0.470787853,-8.10090065,-1.339980721
6.903228637,1.055832982,-7.814958572,-1.232901812
6.908004887,1.406381488,-7.525427341,-1.407577872
6.912767804,1.890928149,-7.432106972,-2.149353027
6.917557335,2.503490686,-7.642077446,-3.304488182
6.922333585,3.074178934,-8.416155815,-4.47756958
6.927096502,3.637688637,-9.464810371,-4.767699242
6.931886033,4.138985157,-10.05643559,-3.978067636
6.936662283,4.438685894,-10.18564796,-3.202194929
6.9414252,4.249652863,-10.40877819,-3.133999348
6.946214731,3.808177233,-10.66959572,-3.126821041
6.950990981,3.217149973,-10.99860954,-2.652443886
6.955753898,2.501097918,-11.26062298,-1.761117458
6.960543481,1.727019787,-11.47059345,-0.7782655358
6.965319679,1.02711916,-11.57886887,-0.05922235921
6.970082595,0.4953143001,-11.7146616,-0.01316052489
6.974872179,0.03589234129,-12.0670042,-0.6634100676
6.979648377,-0.3272185028,-12.67537975,-1.212562919
6.984411293,-0.366700083,-13.28674603,-1.058824062
6.989200877,-0.1525424421,-13.79282761,-0.4498506486
6.993977075,-0.0484546572,-14.02852058,0.1447657645
6.998739991,0.01914258115,-14.187644,0.1543370634
7.003529575,0.2231307179,-14.39342594,-0.7776673436
7.008305773,0.1746760458,-14.59562016,-1.862214208
7.013068741,0.6125625968,-14.68056488,-2.718844652
7.017858273,1.645065546,-14.92403507,-3.563511133
7.02263447,2.524427891,-15.3355999,-3.923032761
7.027397439,2.449054003,-15.5862484,-3.884149313
7.03218697,2.167897224,-15.35115337,-3.873381615
7.03696322,1.945364833,-14.68654728,-4.160520554
7.041726137,1.470987678,-13.94596863,-4.311866283
7.046515668,1.109671474,-13.12283802,-4.607978344
7.051291918,1.163509965,-12.45284748,-4.752744198
7.056054835,0.9948160052,-12.07717419,-4.895715237
7.060844366,0.8937192559,-11.91864967,-5.020740032
7.065620616,0.956530869,-11.87019539,-4.881358147
7.070396814,1.001396298,-11.81276703,-4.50269413
7.075173064,1.045663476,-11.6584301,-4.114458561
7.079949314,0.932602644,-11.35992527,-3.768097401
7.084712231,0.7663014531,-10.91246796,-3.528217077
7.089501762,0.6550351977,-10.33998489,-3.513261795
7.094278012,0.4869394004,-9.747760773,-3.565903902
7.099040929,0.4037888348,-9.131011009,-3.594617844
7.10383046,0.3397808075,-8.548358917,-3.58504653
7.10860671,0.162113741,-7.965706348,-3.517449379
7.113369627,0.1423729509,-7.450053215,-3.378665686
7.118159158,0.1322034448,-6.964310169,-3.215355396
7.122935408,0.0933200866,-6.54018259,-3.057429075
7.127698325,0.02691925503,-6.188437462,-2.91804719
7.132487856,0.01196411345,-5.861218929,-2.807977438
7.137264106,0.04067798331,-5.590830326,-2.67338109
7.142027023,0.06939185411,-5.393422127,-2.544168711
7.146816606,0.1214357466,-5.200799942,-2.434098721
7.151592804,0.1268195957,-5.047060966,-2.29052949
7.15635572,0.1459621787,-4.892724037,-2.199602127
7.161145304,0.1698904037,-4.782055855,-2.108675003
7.165921502,0.1316052526,-4.748556614,-2.103889227
7.170684418,0.1800599098,-4.782055855,-2.012962103
7.175474002,0.2763710022,-4.864010334,-1.926820397
7.180250252,0.3337987661,-4.931009293,-1.884347796
7.18502645,0.3577269912,-4.959722996,-1.87956214
7.1898027,0.3864408433,-4.974080086,-1.836491346
7.19457895,0.4342973232,-4.940580368,-1.793420553
7.199355148,0.4193421602,-4.815555573,-1.812563181
7.204131398,0.2327020019,-4.699503899,-2.012962103
7.208907648,0.06879365444,-4.613361835,-2.156531334
7.213683845,-0.2033899277,-4.440480709,-2.279761791
7.218460095,-0.4701896608,-4.378267288,-2.335993052
7.223236345,-0.6460621357,-4.354937077,-2.330011129
7.228012543,-0.7310073376,-4.287938118,-2.161915302
7.232788793,-0.7100701332,-4.239483356,-1.878963947
7.237565043,-0.7465606928,-4.220340729,-1.591227055
7.242341241,-0.6640082598,-4.201198578,-1.264606714
7.247117491,-0.4001995921,-4.104289055,-0.8967102766
7.251893741,-0.004785645287,-3.968496323,-0.6544370055
7.256669991,0.262014091,-4.00199604,-0.6891329288
7.261446189,0.5856433511,-4.121636868,-0.7148557901
7.266222439,1.161715388,-4.225724697,-0.679561615
7.270985356,1.700100541,-4.441078663,-0.6628118753
7.275774887,2.300100803,-4.811367989,-0.7764709592
7.280551137,2.967698336,-5.435296535,-0.8368897438
7.285314054,3.792623997,-6.01675272,-0.941575706
7.290103585,4.35852623,-6.876972198,-1.346560955
7.294879835,4.852644444,-7.733603001,-1.939382792
7.299642752,5.356931686,-8.681160927,-2.397010088
7.304432335,5.624927998,-9.759725571,-2.724228621
7.309208533,6.160321712,-10.7359972,-2.922832966
7.31397145,6.822535515,-11.51545906,-3.055036306
7.318761033,7.28554678,-12.16391373,-3.22492671
7.323537231,7.365108013,-12.37567902,-3.546761274
7.3283002,7.130013466,-12.34696484,-3.944568157
7.333089731,6.738188744,-12.18425274,-4.043272018
7.337865929,6.1429739,-11.96889877,-4.035495281
7.342628898,5.275575638,-11.70150089,-4.10309267
7.347418429,4.356731892,-11.55434227,-4.165306091
7.352194627,3.66101861,-11.40120125,-4.329812527
7.356957595,3.1405797,-11.19063377,-4.447061062
7.361747127,2.773281336,-10.89811039,-4.454837322
7.366523325,2.710469961,-10.42134094,-4.383052826
7.371286293,2.700300455,-9.833304405,-4.196412563
7.376075825,2.723630428,-9.217152596,-3.942773581
7.380852075,2.694916487,-8.663214684,-3.683152199
7.385614991,2.508874655,-8.249256134,-3.538984776
7.390404523,2.341975212,-7.945965767,-3.327219963
7.395180773,2.167299032,-7.730013371,-3.058027267
7.399943689,1.969292998,-7.639086246,-2.68713975
7.40473322,1.791625977,-7.66839838,-2.263610125
7.40950947,1.55054903,-7.789236069,-2.012962103
7.414272387,1.462014675,-8.025527,-1.835294962
7.419061918,1.348953724,-8.276773453,-1.78145647
7.423838168,1.430309772,-8.570492744,-1.896910191
7.428614418,1.420738459,-8.888139725,-2.093121529
7.433390616,1.445264935,-9.317052841,-2.184048891
7.438166866,1.566102386,-9.817750931,-2.136192322
7.442929783,1.957328916,-10.43868923,-2.272583246
7.447719314,2.066800594,-11.22293663,-2.660818815
7.452495564,2.040479422,-12.26800156,-3.59102869
7.457258481,1.810170293,-13.52064419,-4.611567497
7.462048012,1.213759303,-14.70688629,-5.519643784
7.466824262,-0.002392822644,-15.37448406,-6.352345943
7.471587179,-1.558325768,-15.3732872,-6.397211552
7.476376762,-2.492722988,-14.61057472,-4.770689964
7.48115296,-2.467000246,-13.86521053,-1.633101463
7.485915877,-1.791625977,-13.21914864,1.703091502
7.49070546,-0.7345965505,-13.12104321,3.458825111
7.495481658,-0.3146561682,-13.89631748,4.086342812
7.500244627,-0.4498506486,-15.19322777,5.388636589
7.505034158,-1.170090318,-16.25085449,6.928418159
7.509810356,-1.032503009,-17.42632866,7.019345284
7.514573325,-1.34237349,-18.72204208,5.496313572
7.519362856,-1.028913736,-19.54876328,2.553141832
7.524139106,-0.4558327198,-20.48974037,-1.527817249
7.528902023,-0.1333998591,-21.01735687,-4.265206337
7.533691554,-0.0652044192,-20.08236313,-4.270590305
7.538467804,0.1381855011,-17.0039959,-2.892324448
7.54323072,0.5563312769,-12.91406345,-0.8285148144
7.548020252,1.335195065,-9.482755661,1.597807288
7.552796502,2.183450699,-7.02951479,3.156731367
7.557559418,2.983251572,-6.010770321,3.002992392
7.56234895,3.061018467,-5.841478348,1.744965911
7.5671252,2.935395241,-6.688537598,-0.5814558864
7.571888116,2.127817631,-8.313263893,-2.784049034
7.576677648,0.4917250574,-10.91306591,-4.10249424
7.581453898,-1.244267821,-14.36172104,-5.079962254
7.586216814,-1.90229404,-17.62433434,-6.264409542
7.591006345,-0.6496513486,-19.32204247,-7.018148899
7.595782595,0.8500502706,-18.86979866,-6.493522644
7.600545512,2.100898266,-17.09013748,-4.84546566
7.605335043,3.18006134,-14.78525066,-2.962314367
7.610111293,3.790829182,-12.52941799,-1.497906923
7.61487421,3.862613916,-10.85384369,-0.5162515044
7.619663793,3.498904943,-9.828518867,0.4881358147
7.624439991,2.818146944,-9.262616158,1.441675663
7.629202908,1.993819475,-9.110074043,2.108076811
7.633992491,1.124028444,-9.257232666,2.170290232
7.638768689,0.1244267747,-9.519845009,2.021935225
7.643531606,-0.8721838593,-9.854242325,2.109273195
7.648321189,-1.660020709,-10.26102161,2.27677083
7.653097387,-2.276172638,-10.69172955,2.500499725
7.657860356,-2.74396944,-10.99621677,2.786442041
7.662649887,-2.882154942,-11.06381416,2.715255499
7.667426137,-2.827718258,-10.83769226,2.388635159
7.672189054,-2.661417007,-10.50927734,1.773081541
7.676978585,-2.605185747,-10.0893364,1.057627559
7.681754835,-2.185245275,-9.674181938,0.7292127013
7.686517752,-1.63489604,-9.302098274,0.6532405615
7.691307283,-1.013958573,-9.140582085,0.3960121572
7.696083533,-0.3834498227,-9.119645119,0.06161518395
7.700859731,0.1483550072,-9.118449211,-0.1477568001
7.705635981,0.604187727,-9.112466812,-0.3559323549
7.710412231,1.159920812,-9.125627518,-0.4259224236
7.715175148,1.712662816,-9.114859581,-0.337986201
7.719964679,2.255833626,-9.108279228,-0.1010967568
7.724740929,2.771486759,-9.068798065,0.08374879509
7.729503845,3.275176048,-9.038887978,0.0951147005
7.734293377,3.650250912,-9.018548965,-0.1465603858
7.739069627,3.732803345,-8.945567131,-0.5982056856
7.743832543,3.576073408,-8.859425545,-1.216750264
7.748622075,3.413959742,-8.81097126,-1.978864312
7.753398325,3.398406267,-8.753543854,-2.218744755
7.758161241,3.384049416,-8.603992462,-2.132603168
7.762950773,3.215953588,-8.344370842,-2.227717876
7.767727023,2.933600664,-8.10449028,-2.45683074
7.772489939,2.61714983,-7.88793993,-2.724228621
7.77727947,2.457428932,-7.661818027,-3.011367321
7.78205572,2.397010088,-7.439883709,-3.404388428
7.786818637,2.485544443,-7.261618614,-3.687937975
7.79160822,2.483151674,-7.107281685,-4.005585194
7.796384418,2.356930256,-7.068996429,-4.378865242
7.801147335,2.169692039,-7.122236729,-4.670191765
7.805936918,2.165504456,-7.223333359,-4.617549419
7.810713116,2.063809633,-7.37288475,-4.247858524
7.815489366,1.907079697,-7.571488857,-3.468994617
7.820265616,1.855633974,-7.677969456,-2.61415863
7.825041814,1.788036704,-7.750352383,-2.052443504
7.829804783,1.628913999,-7.736593723,-1.663609982
7.834594314,1.659422517,-7.774878979,-1.32263267
7.839370512,1.980658889,-7.76949501,-0.9020941257
7.844133481,2.40598321,-7.903493404,-0.5874379873
7.848923012,2.583052158,-8.081758499,-0.5880361795
7.853699262,2.703291416,-8.394619942,-0.5886343718
7.85847546,2.898904562,-8.649456024,-0.6137589812
7.86325171,3.46121788,-8.561519623,-0.3714857101
7.868027908,3.589832067,-8.469395638,-0.2955136001
7.872790877,3.975076675,-8.348558426,-0.3212364316
7.877580408,4.200001717,-7.990831375,-0.6352944374
7.882356658,4.742574692,-7.743772507,-1.304686546
7.887119575,5.301896572,-7.775477409,-2.368296146
7.891909106,5.56929493,-7.644470215,-2.936591625
