Time (s),Acceleration x (m/s^2),Acceleration y (m/s^2),Acceleration z (m/s^2)
10.00276021,-3.814159393,5.489135265,-15.83330727
10.00751459,-2.928814888,6.230910301,-16.08694649
10.01226901,-2.268395901,6.659225464,-17.02732658
10.01702339,-1.818545222,7.317251682,-18.19980812
10.02177782,-1.251446247,8.257631302,-19.77189445
10.02653219,0.0382851623,9.375079155,-19.26940155
10.03128657,1.725225091,10.00678444,-16.77368736
10.03604099,3.818944931,10.19820976,-12.45942783
10.04079537,7.283751965,9.631111145,-6.400800705
10.0455498,10.96630573,7.135396957,-1.024128079
10.05030417,12.72742367,3.065205812,3.93140769
10.0550586,11.56211948,-0.9762716293,8.673981667
10.05981297,9.777072906,-3.096312523,11.48076344
10.06456735,8.109275818,-4.053441525,12.53360462
10.06932177,6.379265308,-4.39800787,12.47378445
10.07407615,5.058426857,-4.390829563,11.32762241
10.07883052,3.828516245,-4.307080746,10.09531879
10.08358495,2.639283419,-4.005585194,9.12861824
10.08833933,1.418943882,-3.364308596,8.432307243
10.09309375,0.2105683982,-2.617748022,7.886743546
10.09784813,-0.7920243144,-2.074577332,6.893722057
10.10260256,-1.478764415,-1.844866276,5.340780258
10.10735693,-1.292124271,-1.732403636,3.316452265
10.1121113,-0.6580262184,-1.9812572,1.47158587
10.11686573,0.0382851623,-2.232503414,-0.524028182
10.12162011,0.6843472719,-2.524427891,-3.062813044
10.12637448,0.9475577474,-2.976671457,-3.450450182
10.13112891,0.418743968,-3.438486099,-1.555334687
10.13588328,-0.7202396393,-4.42672205,0.9882357717
10.14063771,-4.101297855,-15.54616833,2.428714991
10.14539209,-1.718046665,-28.42673302,-0.500099957
10.15014646,-1.34237349,-36.3924408,-3.371487141
10.15490089,-2.007578135,-39.23989868,-2.904886723
10.15965526,-3.663411379,-39.13222122,-0.7178468108
10.16440964,-6.374479294,-39.86203384,3.050848961
10.16916407,-8.341380119,-38.12005615,8.673981667
10.17391844,-8.812766075,-32.68117142,8.118846893
10.17867287,-8.130811691,-27.36431885,9.547362328
10.18342724,-6.625725746,-24.15554428,6.221338749
10.18818162,-4.685146809,-21.9613266,2.861815929
10.19293605,-3.160918713,-21.15255165,1.095912814
10.19769042,-1.51944232,-21.41815567,0.3230310678
10.20244485,0.05503492057,-21.99721909,0.2847459018
10.20719922,1.43808639,-22.69352913,0.6556333899
10.2119536,2.754138947,-23.48316193,1.586441398
10.21670802,3.620340586,-24.34457779,2.739781857
10.2214624,3.749552965,-24.97628212,3.464807272
10.22621683,3.696911097,-25.44766808,3.787838221
10.2309712,3.689732552,-26.09612465,4.436293125
10.23572558,4.204189301,-27.16332245,5.32163763
10.24048,5.560919762,-28.33819771,5.970092297
10.24523438,6.747759819,-28.40041161,6.209374905
10.24998875,6.991827965,-27.44806862,6.460621357
10.25474318,5.984449387,-25.70848656,7.726424217
10.25949756,5.374279499,-24.02633286,9.339186668
10.26425193,5.278566837,-23.36351967,9.403793335
10.26900636,5.40060091,-23.19363022,7.625925541
10.27376073,6.118447304,-23.16012955,4.651647091
10.27851516,6.685546398,-23.08595276,-0.4498506486
10.28326954,6.317051888,-22.89931297,-11.94018459
10.28802391,5.740381718,-22.24367905,-29.56571579
10.29277834,6.381658077,-20.04706764,-37.85684586
10.29753271,6.805187702,-17.24507332,-28.93401146
10.30228709,6.867401123,-15.02692604,-13.44766331
10.30704151,7.635497093,-13.23948765,-1.603191137
10.31179589,9.049654961,-12.20339584,3.278167009
10.31655032,10.00917721,-11.25583744,3.75673151
10.32130469,9.734002113,-9.585647583,1.756331801
10.32605907,8.324629784,-7.369893551,-0.9044869542
10.33081349,6.774080753,-5.127819061,-3.400201082
10.33556787,6.302694798,-3.299702406,-5.996413708
10.34032224,6.788437843,-2.536391973,-8.604590416
10.34507667,7.384250641,-2.624926329,-7.496713161
10.34983104,7.910671711,-2.734996319,-4.510470867
10.35458542,8.33898735,-2.663211584,-2.100898266
10.35933985,8.51844883,-2.33300209,1.057627559
10.36409422,8.279166222,-1.785045743,3.9625144
10.36884865,8.539983749,-0.9906286001,5.199603558
10.37360302,9.171689034,-0.07417750359,4.424329281
10.3783574,10.00439167,0.8925228715,1.00737834
10.38311183,11.29651546,1.861616015,-2.78285265
10.3878662,12.78724384,2.801995277,-5.680561066
10.39262058,13.48834133,3.778266907,-6.496513367
10.397375,13.41416359,4.381258488,-5.343173027
10.40212938,13.30648708,4.855037212,-5.728417397
10.40688381,13.06002617,5.216353416,-5.630311489
10.41163818,13.07438278,5.484349728,-4.991427898
10.41639256,13.50987625,5.623133183,-3.8668015
10.42114698,13.86640739,5.69252491,-3.342773199
10.42590136,14.42872047,5.680561066,-4.082155228
10.43065573,14.75893021,5.749952793,-5.218746185
10.43541016,14.88574982,5.852844238,-5.850451469
10.44016454,13.97647667,5.845665932,-5.903093338
10.44491891,10.69352436,5.05124855,-5.876772404
10.44967334,7.06600523,3.687339783,-6.001199245
10.45442771,4.453042984,2.433500528,-6.187839508
10.45918209,2.584248543,1.447657704,-6.163911343
10.46393651,1.402194023,0.7178468108,-5.582455158
10.46869089,0.9906286001,0.2297109663,-3.902693748
10.47344526,1.339980721,-0.04546362907,-1.308874011
10.47819969,1.938186288,-0.2464607358,0.5431707501
10.48295407,2.280359983,-0.3326023519,1.560120344
10.48770849,2.215753794,-0.4594219327,2.048256159
10.49246287,2.189432621,-0.70348984,2.289931297
10.49721724,2.273181438,-1.19880414,2.447857618
10.50197167,2.438286304,-2.098505497,2.658426046
10.50672604,3.077169895,-3.081955671,2.536391973
10.51148042,4.242474556,-4.443471432,2.435893536
10.51623485,5.577669621,-6.417550564,2.490928411
10.52098922,7.350750923,-9.401400566,2.330609322
10.5257436,10.51884842,-14.4191494,1.811366796
10.53049802,14.82353592,-20.79602242,1.871187329
10.5352524,20.28156471,-30.21417236,-2.368894339
10.54000677,25.37349129,-43.36991119,-9.891928673
10.5447612,27.29971313,-57.04728317,-8.860622406
10.54951558,24.76810646,-66.24290466,-1.177268744
10.55426995,16.25922966,-71.28457642,5.254638672
10.55902438,7.448856831,-74.1679306,6.190232277
10.56377875,0.5048855543,-75.46484375,8.640482903
10.56853313,-6.506084919,-74.94320679,11.94736385
10.57328756,-8.736195564,-71.16254425,9.604789734
10.57804193,-8.635697365,-62.07221222,5.508277893
10.5827963,-7.76949501,-50.33302307,-0.2201396823
10.58755073,-7.345965385,-39.65864182,-5.417350292
10.59230511,-6.281159401,-31.22154999,-6.510870457
10.59705948,-4.749752998,-24.72503662,-5.429314613
10.60181391,-3.601198196,-19.63550186,-4.218546391
10.60656828,-2.68713975,-15.62513161,-3.120240688
10.61132271,-1.761117458,-12.52642632,-2.696711063
10.61607709,-1.11984098,-10.25803089,-2.483749866
10.62083146,-0.6843472719,-8.465806961,-2.435893536
10.62558584,-0.2656033039,-7.128218651,-2.328216314
10.63034026,-0.2225325108,-6.116054535,-2.311466694
10.63509464,-0.2225325108,-5.254638672,-1.954936147
10.63984901,-0.4450650215,-4.465006828,-1.371087432
10.64460344,-0.8422735929,-3.787838221,-0.5359922647
10.64935782,-1.141376376,-3.21356082,0.4067798555
10.65411219,-1.691725612,-2.70149684,1.289731383
10.65886662,-2.208575249,-2.239681959,2.036292076
10.66362099,-2.840280533,-1.871187329,2.900100946
10.66837537,-3.270988464,-1.538584948,3.424129248
10.6731298,-3.570091486,-1.466800332,3.718446493
10.67788417,-3.926621914,-1.47158587,3.919443607
10.68263855,-4.15633297,-1.347159147,4.357329845
10.68739297,-4.249652863,-1.155733347,4.945964336
10.69214735,-4.290330887,-0.9451649189,5.331208706
10.69690172,-4.216153622,-0.6867401004,5.589633465
10.70165615,-4.275974274,-0.380458802,5.594419479
10.70641052,-4.357329845,-0.05503492057,5.211567879
10.7111649,-4.369294167,0.2536391914,4.747360229
10.71591933,-4.369294167,0.5623133183,4.228117466
10.7206737,-4.067798615,0.7896314859,3.541377544
10.72542808,-3.744767427,0.9332008362,2.71824646
10.7301825,-3.395415306,1.0863415,1.780260086
10.73493688,-3.189632654,1.227517962,1.052842021
10.73969125,-3.012563705,1.509871125,0.5838487148
10.74444563,-2.840280533,2.086541414,-0.6293123364
10.74920006,-4.228117466,4.649254322,-15.3355999
10.75395443,-4.393222332,7.113861561,-23.62672997
10.75870881,-3.218346357,7.49910593,-22.61217308
10.76346323,-2.024327993,7.604390144,-21.94696999
10.76821761,-0.7920243144,7.812565804,-21.26262283
10.77297198,0.9140582681,8.166703224,-20.38924217
10.77772641,3.034099102,8.128418922,-17.11346817
10.78248078,4.828716278,7.630711555,-10.30827999
10.78723516,7.255038261,6.592226505,-2.232503414
10.79198959,9.506684303,4.646861553,3.93140769
10.79674396,11.34915733,2.103291035,7.951349735
10.80149834,11.87797165,-0.4977070987,9.805787086
10.80625271,11.06680489,-2.483749866,10.25085258
10.81100714,9.650253296,-3.838087559,10.38724327
10.81576151,8.61655426,-4.563112736,9.458827972
10.82051589,7.630711555,-4.670789719,8.968298912
10.82527032,6.623332977,-4.515256405,8.707481384
10.83002469,5.50109911,-4.259224415,8.298309326
10.83477907,4.378865242,-3.840480328,7.326822758
10.83953349,3.567698479,-3.59641242,6.690331936
10.84428787,2.78285265,-3.357130051,6.266802311
10.84904224,1.617548108,-2.938386202,4.969892502
10.85379667,0.5144568682,-2.538784742,3.160918713
10.85855104,-0.1124626622,-2.376072884,1.605584025
10.86330542,-0.7800601721,-2.720639229,-3.8213377
10.8680598,-1.100698471,-3.072384357,-7.709674358
10.87281422,-0.3302095234,-2.823530674,-4.405186653
10.8775686,-0.2297109663,-3.543770313,-2.383251429
10.88232297,-1.47158587,-7.84845829,-0.7130611539
10.8870774,-0.5096712112,-18.94158363,-1.177268744
10.89183177,-0.433100909,-29.27618599,-2.507678032
10.89658615,-0.6843472719,-37.09353638,-1.787438512
10.90134052,-0.1914258152,-41.29772568,0.04067798331
10.90609495,-1.351944804,-41.52504349,1.835294962
10.91084933,-2.902493954,-39.86681747,9.753145218
10.9156037,-4.508078098,-34.64328766,12.31585789
10.92035813,-4.912465096,-28.00559616,12.51685524
10.9251125,-4.558327198,-22.93520546,11.45204926
10.92986688,-3.754338741,-21.3966198,6.93679285
10.9346213,-2.254039049,-20.98505402,3.328416348
10.93937568,-1.251446247,-20.94676971,1.440479279
10.94413006,-0.1698904037,-21.25065804,0.7728816867
10.94888443,0.9451649189,-21.56890297,0.6340979934
10.95363886,1.409372568,-21.70529366,0.9714859724
10.95839323,0.9020941257,-21.37508392,1.433300734
10.96314761,0.4402793646,-21.20758629,1.969292998
10.96790204,0.03349951655,-21.42772675,2.002792597
10.97265641,0.6628118753,-22.34657097,2.215753794
10.97741078,1.414158225,-23.35394859,2.89292264
10.98216521,1.880758643,-24.22014999,3.646661758
10.98691959,2.481357098,-24.72982216,4.278367043
10.99167396,2.505285263,-24.86382103,4.819144726
10.99642834,1.59840548,-24.08615303,5.213960648
11.00118276,0.1531406492,-22.83231354,5.496313572
11.00593714,-0.8303094506,-21.82493591,6.56829834
11.01069151,-1.050449133,-21.3080864,8.343772888
11.01544589,-0.09092725813,-21.23869324,10.53081226
11.02020032,1.42372942,-21.39901352,10.78205872
11.02495469,2.30189538,-21.58086777,5.4652071
11.02970907,3.208775282,-21.82732773,-6.087340832
11.03446349,4.039084435,-21.76272202,-26.43111801
11.03921787,5.469992638,-20.16910172,-40.59902191
11.04397224,5.852844238,-17.37428474,-36.12683487
11.04872662,5.139782906,-14.87378597,-22.2245369
11.05348104,4.819144726,-13.1581316,-8.958727837
11.05823542,5.10149765,-12.00239849,-0.4977070987
11.0629898,6.285944939,-11.07398319,2.469393015
11.06774422,7.255038261,-10.052248,1.31126678
11.0724986,7.530212879,-8.403593063,-2.009970903
11.07725297,7.49910593,-6.647261143,-5.934200287
11.08200735,7.467999458,-5.453242779,-9.44207859
11.08676177,7.554141045,-4.711467743,-10.82034397
11.09151615,7.956135273,-4.563112736,-8.528019905
11.09627052,8.063812256,-4.819144726,-3.744767427
11.1010249,8.123632431,-4.465006828,1.921436548
11.10577933,8.114061356,-4.082155228,5.455635548
11.1105337,8.047062874,-3.656233072,8.336593628
11.11528808,8.274380684,-3.122633457,9.131011009
11.1200425,9.1860466,-2.215753794,8.815158844
11.12479688,10.61934662,-1.306481123,7.389036179
11.12955125,11.07398319,-0.3086741269,4.996213913
11.13430563,11.62193966,1.033699393,-1.332802176
11.13906006,12.74178028,2.46221447,-8.257631302
11.14381443,12.92363548,3.842873096,-12.0287199
11.1485688,12.27517986,4.823930264,-10.14078236
11.15332318,11.59561825,5.623133183,-8.664410591
11.15807761,11.01894855,6.257231236,-5.946164131
11.16283198,10.97109222,6.606583118,-3.529413462
11.16758636,11.14816093,6.843472958,-2.134397745
11.17234073,11.49033451,6.972685337,-2.048256159
11.17709516,12.61735344,6.939185619,-3.687339783
11.18184954,13.38066387,6.173482418,-5.709274769
11.18660391,14.17747402,6.290730953,-7.231110096
11.19135834,15.08674717,6.333801746,-7.511070251
11.19611271,13.3710928,5.793023586,-7.054041386
11.20086709,9.351150513,4.369294167,-6.058627129
11.20562146,6.434299946,2.97427845,-5.072783947
11.21037584,4.491328239,1.847259045,-3.723232031
11.21513026,3.359523058,1.048056364,-2.27078867
11.21988464,2.624926329,0.4378865361,-1.335195065
11.22463901,2.220539331,-0.009571290575,-0.679561615
11.22939344,2.017149448,-0.3158525825,-0.1339980662
11.23414782,2.048256159,-0.626919508,0.5359922647
11.23890219,2.0769701,-1.014556766,1.131805062
11.24365657,2.371287346,-1.832902193,1.789831281
11.24841099,3.141776085,-2.98863554,1.969292998
11.25316537,4.335794449,-4.290330887,2.065006018
11.25791974,5.6566329,-6.195017815,2.136790514
11.26267412,7.133004189,-8.944371223,2.024327993
11.26742849,10.26281643,-13.96690559,0.7250252366
11.27218292,14.60578918,-21.27219391,-2.088934183
11.2769373,19.69771576,-31.18805122,-6.972685337
11.28169167,24.36371994,-43.50391006,-11.37069321
11.2864461,26.4670105,-55.594841,-10.65763187
11.29120047,24.47378922,-64.96035004,-2.452643156
11.29595485,18.15434456,-71.23432922,4.453042984
11.30070922,9.425328255,-75.0460968,7.714460373
11.30546365,1.828116536,-76.20661926,10.26281643
11.31021802,-5.78584528,-74.9695282,12.3996067
11.3149724,-12.39003563,-71.51428986,13.02174091
11.31972677,-12.72024536,-64.41000366,10.31067276
11.3244812,-12.47617722,-53.67819214,6.544369698
11.32923558,-11.1505537,-42.62813568,0.9499505758
11.33398995,-9.238688469,-33.18605804,-6.321837425
11.33874433,-7.334001541,-25.81137848,-8.525627136
11.34349875,-5.460421085,-19.99681854,-7.690532207
11.34825313,-3.912265062,-15.81895065,-5.824130535
11.3530075,-2.49332118,-12.72981644,-4.252045631
11.35776188,-1.093519926,-10.44227791,-3.378665686
11.36251631,-0.08614161611,-8.693124771,-2.907279491
11.36727068,0.5527420044,-7.369893551,-2.888136864
11.37202506,1.019342422,-6.355337143,-2.725425005
11.37677943,1.110269666,-5.541777134,-2.471785784
11.38153386,0.9284151793,-4.828716278,-2.234896421
11.38628823,0.6628118753,-4.218546391,-1.808973908
11.39104261,0.4498506486,-3.646661758,-0.7728816867
11.39579698,-0.04307080805,-3.251846075,0.2727817893
11.40055141,-0.7298108935,-3.060420275,1.318445325
11.40530579,-1.521835208,-2.804388046,2.380858421
11.41006016,-2.447857618,-2.55792737,3.184846878
11.41481454,-3.431307554,-2.404786825,3.751945972
11.41956896,-4.07736969,-2.433500528,4.072584152
11.42432334,-4.488935471,-2.46221447,4.151547432
11.42907771,-4.737788677,-2.335394859,4.431507587
11.43383209,-4.776073933,-1.964507341,4.965106964
11.43858646,-4.620540619,-1.524227977,5.630311489
11.44334089,-4.701896667,-1.091127157,5.690132141
11.44809526,-4.912465096,-0.6891329288,5.25942421
11.45284964,-4.969892502,-0.1746760458,4.953142643
11.45760401,-4.931607246,0.2847459018,4.661218643
11.46235844,-4.716253281,0.5623133183,4.02712059
11.46711282,-4.460221291,0.7752745152,3.089133978
11.47186719,-4.216153622,0.9858429432,2.143969059
11.47662157,-3.993621111,1.356730461,1.421336651
11.48137594,-3.893122435,1.887937069,1.076770186
11.48613037,-3.505485058,2.703889608,1.316052437
11.49088474,-4.098905087,5.242674351,-10.55234814
11.49563912,-4.706682205,8.48973465,-23.38266373
11.50039349,-3.873979807,8.863015175,-22.40399933
11.50514792,-2.713460922,8.930013657,-21.58565331
11.5099023,-1.641476393,9.190832138,-20.77927208
11.51465667,-0.2488535494,9.652647018,-19.45364761
11.51941104,1.368694544,9.918250084,-16.13958931
11.52416547,3.251846075,9.674181938,-9.817750931
11.52891985,5.632704735,8.896514893,-2.866601467
11.53367422,8.08295536,7.161718369,1.696511269
11.5384286,10.08574772,4.414757729,3.601198196
11.54318297,11.19601727,1.538584948,4.862215519
11.54793735,10.52363396,-0.9451649189,5.682953835
11.55269177,9.346364975,-2.337787628,6.290730953
11.55744615,8.267202377,-3.08434844,6.089733601
11.56220052,7.226324558,-3.483949661,6.491727829
11.5669549,6.072983742,-3.440878868,7.317251682
11.57170933,5.082355499,-3.170490026,7.896314621
11.5764637,4.163511276,-2.955136061,7.580461979
11.58121808,3.110669374,-2.70149684,6.934400082
11.58597245,2.261217356,-2.474178553,6.259624004
11.59072683,1.349551916,-2.254039049,5.132604599
11.59548125,0.5982056856,-2.155933142,3.476771355
11.60023563,0.3110669553,-2.246860504,1.892722726
11.60499,0.4067798555,-2.519642353,-1.256231904
11.60974438,0.5647061467,-2.902493954,-4.374079704
11.61449875,0.679561615,-3.302095175,-4.161118507
11.61925318,-0.3397808075,-6.010770321,-1.016949654
11.62400756,-0.708275497,-19.20718765,-0.1339980662
11.62876193,-1.47158587,-31.8006134,-3.366701365
11.6335163,-2.325823545,-39.96731567,-4.728217602
11.63827073,-1.495514154,-44.29593277,-2.81395936
11.64302511,-3.168097258,-45.04727936,-1.091127157
11.64777948,-4.979464054,-42.66402817,4.098905087
11.65253386,-6.843472958,-34.91846085,11.92343521
11.65728823,-7.228717327,-26.86661339,10.2652092
11.66204266,-6.530013084,-20.1547451,10.38245773
11.66679704,-5.821737289,-16.77607918,7.795815945
11.67155141,-5.64227581,-16.02712631,4.256831646
11.67630578,-5.2737813,-17.58724594,1.531406522
11.68106016,-4.433900356,-20.08535385,0.1938186288
11.68581459,-3.127419233,-21.87757683,0.1172483116
11.69056896,-1.864008784,-23.12663078,0.6484549642
11.69532334,-1.268195987,-23.92344093,1.392622828
11.70007771,-0.8350951076,-24.30629158,2.498106956
11.70483209,-0.5216353536,-24.51686096,3.00538516
11.70958646,0.09571290761,-24.98346138,3.232703447
11.71434089,1.138983607,-25.94537544,3.759124279
11.71909526,2.129612207,-26.73740005,4.570291042
11.72384964,2.679961443,-27.25903511,5.149354458
11.72860401,2.691925526,-27.18007278,5.895915031
11.73335839,1.797009826,-26.34258461,6.24766016
11.73811282,0.1172483116,-24.98824692,6.608976364
11.74286719,-0.8255237937,-23.9186554,7.238288403
11.74762157,-1.079162955,-23.17927361,8.937192917
11.75237594,-0.1651047617,-22.77488518,10.79641533
11.75713032,1.505085468,-22.79163551,11.26301575
11.76188474,2.605783939,-22.88017082,9.662218094
11.76663912,3.493520975,-22.95913315,6.197410583
11.77139349,4.716253281,-23.24866486,-1.239482164
11.77614787,6.675975323,-23.36830521,-18.83390617
11.78090224,9.710074425,-21.9493618,-40.85026932
11.78565667,11.87318611,-18.75015831,-45.01138687
11.79041104,10.60259724,-15.47916985,-33.12145233
11.79516542,9.020941734,-13.38784313,-18.09452438
11.7999198,8.171489716,-12.00239849,-6.151947021
11.80467417,8.504091263,-10.81555843,-0.4522434771
11.80942855,9.217152596,-9.597611427,1.373480201
11.81418297,9.609575272,-8.152346611,0.9547362328
11.81893735,9.15733242,-6.187839508,-1.789831281
11.82369172,8.693124771,-4.467400074,-6.865008354
11.8284461,8.583054543,-3.409772158,-10.38245773
11.83320047,8.827122688,-3.247060299,-9.932606697
11.83795485,8.985049248,-3.570091486,-6.580262184
11.84270927,9.293723106,-3.850051641,-2.488535643
11.84746365,9.226723671,-3.790230989,1.90229404
11.85221802,9.367900848,-3.543770313,6.061019897
11.8569724,9.530612946,-3.03888464,8.609375954
11.86172677,10.17906761,-2.175075769,9.475577354
11.86648115,11.27737331,-1.143769264,8.961120605
11.87123558,12.36610699,0.04067798331,7.274180889
11.87598995,13.05524063,1.371087432,2.868994236
11.88074433,13.98844147,2.890529871,-4.575077057
11.8854987,14.0865469,4.328616142,-10.01396275
11.89025308,12.98584843,5.37188673,-9.521040916
11.89500745,12.078969,5.941378593,-6.635297298
11.89976188,11.37308598,6.384050846,-4.496113777
11.90451625,10.77248764,6.659225464,-2.579462767
11.90927063,10.19820976,6.814758778,-1.572084427
