Time (s),Acceleration x (m/s^2),Acceleration y (m/s^2),Acceleration z (m/s^2)
6.00348294,0.36398721161491726,-0.1825709488292637,0.6528039242507101
6.008245804,-1.1884806424207948,-3.0249167664047514,0.6151456791490834
6.013035283,-2.6949267091428113,-5.789262544171593,0.5605924367327841
6.017811429,-4.104305039318126,-8.399356414140088,0.4957924003255745
6.022574294,-5.369227178844867,-10.785885245708304,0.42852759208082347
6.027363773,-6.447883251809364,-12.889195837028767,0.3674516695844388
6.032139971,-7.305687572963495,-14.661519390699276,0.32178252539049973
6.036902835,-7.916572840445974,-16.0685944065761,0.3009578097776354
6.041692315,-8.263878729098309,-17.090619032601495,0.3142613193036348
6.04646846,-8.34080501842033,-17.722502882097906,0.3704281641146865
6.051231325,-8.150424624548286,-17.97342756426575,0.4772373354243092
6.056020804,-7.705276351818197,-17.865762126723745,0.6411019458881454
6.060797002,-7.026579066734659,-17.4334121160003,0.8666697247347167
6.065559867,-6.143126723575648,-16.719707406357195,1.1564487204699627
6.070349346,-5.0899360405928125,-15.774953314401918,1.5104750033186929
6.075125492,-3.9067249831864252,-14.653781321566655,1.926040081502655
6.079888356,-2.636300561687535,-13.412439872500242,2.397495600961404
6.084677835,-1.3229295672484431,-12.106162392438515,2.9161517115123057
6.089453981,-0.010757181283195227,-10.786739320447785,3.470283369250471
6.094216898,1.2576723904395954,-9.500404349087866,4.0452559339240795
6.099006377,2.4427504799381525,-8.2861233226718,4.62377779310828
6.103782523,3.5089618768254938,-7.174348843048057,5.186283417983468
6.108545388,4.425844242954215,-6.186276231570401,5.711445212048146
6.113334867,5.168735950061495,-5.333608789085149,6.176806780476272
6.118111065,5.719306812769108,-4.6188138510331465,6.559523967858039
6.122873877,6.065872511237971,-4.0358273036163395,6.837193473350516
6.127663408,6.203498691719699,-3.5711440873703117,6.988742447552017
6.132439554,6.133904958800301,-3.205216546751988,6.99534663871252
6.137202419,5.865182436694851,-2.914071768073307,6.841339822989151
6.141991898,5.411341490597834,-2.6710534693610963,6.515073842491737
6.146768044,4.79170872741254,-2.4485934734772723,6.009686954553509
6.151530908,4.030194611138218,-2.2199219680199147,5.323738644935482
6.156320388,3.1544549037693597,-1.9606340744291733,4.461671742191092
6.161096585,2.194970588499946,-1.6500419881411972,3.4340676352399955
6.16585945,1.1840718615842334,-1.2722562769276786,2.2576675617564606
6.170648929,0.1549321526927563,-0.8169559619298776,0.9551420982177119
6.175425127,-0.8594420209878921,-0.2798239078837326,-0.44539817857218544
6.180187992,-1.8272001409247562,0.3373589650033646,-1.9111458141791746
6.184977419,-2.7185913404484805,1.02695076998549,-3.405575576313767
6.189753617,-3.50683924487978,1.7759920538239418,-4.889628888161031
6.194516481,-4.16892568788423,2.5670172120635484,-6.323060675347625
6.19930596,-4.68626215109548,3.379084581252465,-7.665894615131108
6.204082158,-5.045229102397383,4.18896744149368,-8.879923485004504
6.208844971,-5.237565069162462,4.972442596148792,-9.930184442178527
6.213634502,-5.260589527327583,5.705610652031969,-10.78633533214271
6.218410648,-5.117246849754471,6.36618267868492,-11.423858474490142
6.223173513,-4.815963031641034,6.934671533813832,-11.825024111526613
6.227962992,-4.370313053031038,7.39543257830302,-11.97955806176891
6.23273919,-3.7985046122478656,7.737507323272363,-11.884977074295623
6.237502002,-3.1226930430559325,7.9552341167599065,-11.546578687126665
6.242291533,-2.3681514027488397,8.048601571207062,-10.977096206346701
6.247067679,-1.5623277288278026,8.023332389573113,-10.196050178781396
6.251830544,-0.7338274072922344,7.890697023620538,-9.228843488232627
6.256620023,0.08863787915280164,7.66706776280857,-8.105657576051174
6.261396169,0.8772919908047045,7.373234064526729,-6.860212711644085
6.266159033,1.6062852703392212,7.033508934983723,-5.52845643720914
6.270948565,2.252595647795079,6.674663769795591,-4.1472420459941715
6.27572471,2.796805264044973,6.324735132356354,-2.7530539486994092
6.280487575,3.2237235373909963,6.011751378044207,-1.3808296869930055
6.285277054,3.522834226070106,5.762429727784191,-0.06291971902372054
6.290053252,3.6885514981081773,5.600895293180451,1.171783595324989
6.294816065,3.7202780599708727,5.547472661824538,2.2985266872969574
6.299605544,3.6222667232600543,5.617598052370107,3.297174466748119
6.304381742,3.403295071486839,5.820895899236317,4.152488401399876
6.309144606,3.0761707745322364,6.160458220128233,4.854211633998346
6.313934085,2.6570922211202848,6.63235846525478,5.396977777825832
6.318710283,2.164895125406488,7.225423955910125,5.7800664219625455
6.323473096,1.6202202687744656,7.92128269511626,6.007032906351372
6.328262575,1.0446403065861702,8.69469146581283,6.08524243691773
6.333038773,0.4597844685365476,9.51414290713828,6.025339067613865
6.337801638,-0.11350100006441512,10.342739866020992,5.840678587760984
6.342591117,-0.6559215714714159,11.139315966073882,5.546751184291847
6.347367315,-1.1504016133924917,11.859772249798747,5.160615307439775
6.352130179,-1.5826249723133723,12.45859118788139,4.700358963557482
6.356919606,-1.9414306456586714,12.89048157956055,4.184599234277006
6.361695804,-2.2190526402137865,13.112101165633067,3.6320256833313174
6.366458669,-2.411200843820357,13.083798420528698,3.060988870225049
6.371248148,-2.5169873835579795,12.771311263309633,2.4891317332125547
6.376024294,-2.538710114359377,12.147358596405626,1.9330593180937896
6.380787158,-2.4815112293254797,11.193060875195492,1.4080413361789883
6.385576638,-2.3529342271110876,9.89912850863166,0.9277424260088937
6.390352835,-2.162406405479426,8.26676191565495,0.5039767874982322
6.395129033,-1.9206765407613524,6.308214586839301,0.14648686583349863
6.399905179,-1.639238408782031,4.046980523956927,-0.1372505140471514
6.404681377,-1.3297703187424135,1.517579825639976,-0.34218348920457137
6.40944419,-1.0036189021893807,-1.2350693443693452,-0.46580014508019996
6.414233669,-0.6713520399345126,-4.15668810642132,-0.508188205498369
6.419009867,-0.3424010330780431,-7.185062189564223,-0.47202936458750894
6.423772731,-0.024806008361419392,-10.251816591651762,-0.36252077991049575
6.42856221,0.2749286947899092,-13.284484223827546,-0.18721964704044486
6.433338356,0.5518703957647532,-16.20879802592383,0.04418999465120561
6.438101221,0.8025945833132393,-18.95112338297063,0.32020640777839465
6.4428907,1.0250388958703986,-21.440938255516496,0.6278908782607946
6.447666898,1.2182971569399312,-23.613262686429195,0.9533124679735752
6.452429763,1.3823792097524683,-25.410937577799785,1.2820452762006402
6.457219242,1.517962349534595,-26.786655275801227,1.5997023956914118
6.461995388,1.626157142632041,-27.704652069090688,1.8924869314206907
6.466758252,1.7083049770172758,-28.14198545824881,2.147737698398175
6.471547731,1.7658178911535098,-28.089336679241928,2.3544456987906313
6.476323929,1.8000642853847495,-27.551300537599673,2.503717083663381
6.481086794,1.8122980286005248,-26.546148813946353,2.589158996408603
6.485876273,1.8036239274539205,-25.105078868023952,2.607166725468986
6.490652471,1.7749900156016576,-23.27098406246872,2.557094303301607
6.495415283,1.7271969077361022,-21.09680562552628,2.4412961048400357
6.500204763,1.660916322368898,-18.643544919676575,2.2650336526410335
6.50498096,1.5767139373784778,-15.978029341287872,2.0362489542939706
6.509743825,1.4750748125057098,-13.170533349265627,1.7652125667808443
6.514533304,1.3564318088297351,-10.292358236031445,1.4640607696607766
6.51930945,1.221198506866828,-7.413470669977154,1.1462415502289864
6.524072315,1.0698082752718066,-4.6002915869818946,0.825893459410078
6.528861846,0.9027606927239897,-1.9137146716526627,0.5171846553027368
6.533637992,0.720675759520995,0.5925815261707098,0.2336414504626938
6.538400856,0.5243554798612946,2.873480797941657,-0.012503702737513072
6.543190335,0.31485159593542555,4.893406523489278,-0.2109156417939898
6.547966481,0.09353753690110587,6.626917186398139,-0.353684302908372
6.552729346,-0.1378180581417009,8.058924761943363,-0.43575314292443607
6.557518877,-0.3769796473686135,9.184555114542892,-0.45522861918720225
6.562295023,-0.6211791494186752,10.008681719438156,-0.4135560798774983
6.567057888,-0.8670613793243108,10.54517353055872,-0.3155527830467745
6.571847367,-1.110646206352564,10.815904508785549,-0.16929437543674353
6.576623513,-1.3473134419042814,10.849576200750938,0.014143163843280238
6.581386429,-1.5718164608945124,10.68040595083864,0.2210785506854399
6.586175908,-1.7783301163666045,10.34673211023689,0.4357443541485665
6.590952054,-1.9605375740843012,9.889584376414957,0.640912601381212
6.595714919,-2.111759268334178,9.351262645074106,0.8186048552525313
6.600504398,-2.2251253112832834,8.773962023605097,0.9508611476330942
6.605280596,-2.2937904652088363,8.198475484898978,1.020539235216975
6.61004346,-2.3111883248834584,7.662999530960855,1.0121135431488433
6.61483294,-2.271318780988521,7.202062583314331,0.9124419787583664
6.619609085,-2.1690602618775747,6.845590881010673,0.7114686519128985
6.62437195,-2.00049579022979,6.618122572683708,0.40283155468061543
6.629161429,-1.7632396636201775,6.538177462520327,-0.01565346299218301
6.633937627,-1.4567497130670641,6.617787474458885,-0.541657493000175
6.638700492,-1.0826087550676688,6.862191247367572,-1.168172379264784
6.643489971,-0.6447581610099248,7.269695218259083,-1.883527858463679
6.648266117,-0.14966653119516046,7.831702871767737,-2.671599593208544
6.653028981,0.3935826414788259,8.532913255721708,-3.5122083219390015
6.65781846,0.973298656566387,9.351689086473016,-4.381702692622221
6.662594658,1.5752983177806663,10.260593513502183,-5.253710617442208
6.667357523,2.1831358357428368,11.227092648575798,-6.100036427631572
6.672147002,2.778451775908834,12.214418126527804,-6.891673975113216
6.676923148,3.3414398737049233,13.182580172815843,-7.599899382708721
6.681699346,3.8514248945064162,14.089516924555504,-8.197401651840334
6.686475492,4.287538648374697,14.892360206329283,-8.65940506088935
6.69125169,4.629475083329308,15.548791817205172,-8.964734494478725
6.696014554,4.858299472665249,16.01845794645667,-9.096773799591155
6.700804033,4.957281489265176,16.264402988109723,-9.04426824374233
6.705580179,4.912717776984343,16.254478232864063,-8.801925491033067
6.710343044,4.714706777893453,15.962676216550753,-8.37077569435806
6.715132523,4.357837304084593,15.370338466198001,-7.758260884941808
6.719908721,3.8417528601958506,14.467183517762717,-6.978037075108776
6.724671585,3.1715561535577357,13.252103724870784,-6.049488819606119
6.729461065,2.3580225762943754,11.733683651158014,-4.996973912159331
6.73423721,1.417597598182445,9.930399658735443,-3.848833391558945
6.739000075,0.37216081876812257,7.870469493939896,-2.636217077873973
6.743789554,-0.7514512498249232,5.591332070706038,-1.3917858834740158
6.748565752,-1.9221609426551465,3.1387511566904345,-0.1483583045150039
6.753328617,-3.105589354439821,0.5655521295950336,1.0624302053065822
6.758118096,-4.265193853700673,-2.069981940788951,2.21138918537938
6.762894242,-5.363564627813078,-4.706010504880073,3.2728968323152654
6.767657106,-6.363830495768427,-7.279269334365404,4.225834377447715
6.772446585,-7.231114545331209,-9.727357707245927,5.054290628170888
6.777222783,-7.933972681997845,-11.99108329447416,5.748008091310328
6.781985648,-8.445743698123069,-14.016757043423562,6.3025553702649
6.786775127,-8.74573888092565,-15.758323554170907,6.719224686595267
6.791551273,-8.82020337692296,-17.179212786465783,7.004667515065121
6.796314138,-8.662991106765592,-18.253807839304393,7.170294161818226
6.801103617,-8.275909889005964,-18.96844121076216,7.23147351044706
6.805879815,-7.668712589079575,-19.321857151760344,7.206576531986144
6.810642679,-6.858731751244271,-19.32510821519076,7.115911559365742
6.815432158,-5.870177102595872,-19.00088712100006,6.9806012474193215
6.820208304,-4.733135486277912,-18.382327802271558,6.821451198299416
6.824971169,-3.482329594172767,-17.511339441940848,6.657858939902446
6.829760648,-2.1557042653364906,-16.436562456944415,6.506809573371248
6.834536846,-0.7929165044568148,-15.21105437188027,6.3820009755094675
6.83929971,0.5661924670000844,-13.889825605016188,6.293136757064879
6.84408919,1.8830678400133738,-12.52735018414963,6.245418944214893
6.848865335,3.1217871239178985,-11.175174585871284,6.239264404870516
6.8536282,4.250225893803786,-9.879739792433744,6.270259535895459
6.858417679,5.24100268163266,-8.68051796240154,6.32935712545765
6.863193877,6.072178162470018,-7.608546617184996,6.4033082430306205
6.867956742,6.727699171822004,-6.6854209674595495,6.475311151042576
6.872746221,7.197591853471615,-5.922780192840602,6.525849167230336
6.877522367,7.477919721586822,-5.322297550194984,6.533680616895382
6.882285231,7.570531351199262,-4.876158546118026,6.4769368838063786
6.88707471,7.482628743236564,-4.567987411511097,6.334279394179244
6.891850908,7.226191237321133,-4.3741609599252715,6.086063345478791
6.896613773,6.817291367584571,-4.265431598259032,5.715455207557629
6.901403252,6.275338573774894,-4.208768545684492,5.209452470229587
6.906179398,5.62228456793166,-4.169318681204101,4.55975770690949
6.910942263,4.88182081386871,-4.112386058483043,3.7634646310311237
6.915731742,4.078594366249017,-4.005331873522488,2.823521260915778
6.92050794,3.2374635570485273,-3.819304146662414,1.748944352933391
6.925270804,2.382810025993595,-3.5307179673120803,0.554769620017135
6.930060283,1.5379187194014494,-3.1224220751712353,-0.7382664417564451
6.934836481,0.7244331025188843,-2.584504934512196,-2.104305462233344
6.939599294,-0.038110722438948835,-1.9147123454666184,-3.513187273844076
6.944388773,-0.7326698312913186,-1.118468057609665,-4.931480058724828
6.949164971,-1.345000586476789,-0.20850788243633786,-6.323678789897247
6.953927835,-1.8638860908910633,0.7958443942025968,-7.65352083509803
6.958717315,-2.281286124707718,1.8697151543836534,-8.885360047270456
6.963493513,-2.5924103959957243,2.9839757307111414,-9.985535449086548
6.968256325,-2.795715472036523,4.106726212746468,-10.92366833494884
6.973045804,-2.892825451869195,5.204893911023613,-11.673823040865429
6.977822002,-2.8883766752572733,6.24586908411249,-12.21547269027148
6.982584867,-2.789787878273068,7.199101299577328,-12.53422254931665
6.987374346,-2.6069592975487126,8.037584132967218,-12.622259795074838
6.992150544,-2.3519070031745364,8.739163271449744,-12.478517580862363
6.996913356,-2.0383416193188366,9.28761274823496,-12.108560353900923
7.001702888,-1.6812030077214402,9.673435254974985,-11.524213724263557
7.006479033,-1.2961641785190399,9.89435466411279,-10.74297420370304
7.011241898,-0.8991187209969986,9.95548160912244,-9.787241502802543
7.016031377,-0.5056666294611262,9.869145891863516,-8.683419344456484
7.020807575,-0.13061371109252812,9.654402318413254,-7.4609308356155255
7.02557044,0.21250013988588645,9.336229000206284,-6.15119225548195
7.030359919,0.5118286777015717,8.944448865766716,-4.786585441618405
7.035136065,0.7575884474101028,8.51241576504229,-3.3994644122022972
7.039898929,0.9423557443022517,8.075515773300612,-2.0212269404866348
7.044688408,1.0612794380696688,7.669541804548315,-0.6814768061776968
7.049464606,1.1122000828569594,7.3290051653739186,0.592702522734295
7.054227471,1.0956688995047976,7.085451021650178,1.7773470704603949
7.05901695,1.014864127855534,6.965845789708873,2.852073956500874
7.063793096,0.8754067181034879,6.991103158994279,3.8004005126314677
7.06855596,0.6850820315911925,7.174811837824864,4.609921663636662
7.07334544,0.45347874464135873,7.522222277687727,5.272351824553902
7.078121638,0.19156011755386634,8.029541710011431,5.783442567117083
7.082884502,-0.0888140495092571,8.683577005090688,6.1427914686345
7.087673981,-0.37539422668143396,9.461753367688907,6.353560601121391
7.092450127,-0.6560549424212422,10.332523995673894,6.422124865985705
7.097212992,-0.9192935222095552,11.256171868955175,6.357670772905195
7.102002471,-1.154692505621844,12.185990177456839,6.17176537550402
7.106778669,-1.3533261770907516,13.069812964918851,5.877913095528257
7.111541533,-1.5080942284718326,13.851852839220104,5.491115347379569
7.116331013,-1.6139689158994432,14.474788603390351,5.02744450844589
7.121107158,-1.6681460312337875,14.88203294801099,4.5036401719912
7.125870023,-1.6700943995237254,15.020099479473846,3.9367320695898784
7.130659502,-1.6215032306999035,14.84097989270082,3.3436908487425234
7.1354357,-1.5261312728319636,14.304436549710346,2.74110530957781
7.140198565,-1.3895661174714777,13.380113555180268,2.144882983122254
7.144988044,-1.2189060020769136,12.04937100040717,1.5699702599351186
7.14976419,-1.022379882379686,10.306752641640342,1.030088751637042
7.154527054,-0.8089242850764341,8.161007015537804,0.5374861612656134
7.159316533,-0.5877374067694187,5.635595840083418,0.10270246788222767
7.164092731,-0.3678320380573559,2.768641291031031,-0.26564464263989795
7.168855596,-0.15760912615950204,-0.3877150204207428,-0.5610479041236015
7.173645075,0.035526883211205784,-3.768544416323715,-0.7792620805016708
7.178421221,0.2054914129928223,-7.297931723675447,-0.9184070622359698
7.183184085,0.34776500506979935,-10.89129373772644,-0.9790100711359119
7.187973617,0.4595475179455706,-14.45813848623883,-0.963976242047483
7.192749763,0.5398135091835216,-17.90516339180261,-0.8784805233028796
7.197512627,0.5892672807627307,-21.139569203330947,-0.7297787916035435
7.202302106,0.6102027175874171,-24.072450408881775,-0.526941168416186
7.207078252,0.6062791683072423,-26.622113024183207,-0.28051498945788444
7.211841117,0.5822293768205592,-28.717168261347307,-0.0021286248963476953
7.216630596,0.5435185200032187,-30.299256478485592,0.29594947645775216
7.221406794,0.4959748995447244,-31.325270423390172,0.6012795679052881
7.226169658,0.44541316156724686,-31.768969824595967,0.9017284269252718
7.230959138,0.39727037792415815,-31.62190966517021,1.1859364185296575
7.235735335,0.356274022237339,-30.893640007080624,1.4437537605249708
7.240498148,0.32615880961291327,-29.6111735178788,1.6666264465947846
7.245287679,0.3094465634082115,-27.81775516055701,1.8479136030647973
7.250063825,0.3072998251800788,-25.571004060536794,1.983120398566566
7.25482669,0.31945597082953997,-22.940527746856393,2.070034075331982
7.259616169,0.34424427360734544,-20.005131731238702,2.1087550472028687
7.264392367,0.37868386234483375,-16.84976164849501,2.101619969329867
7.269155231,0.4186561742437207,-13.5623208618685,2.053018874138424
7.27394471,0.4591416327521224,-10.230504192266265,1.969113576773982
7.278720856,0.49450713214688036,-6.938779286250915,1.857469331392902
7.283483721,0.5188286335818192,-3.7656322889695546,1.7266160021371184
7.2882732,0.5262319091842512,-0.7811752339850845,1.585558686929756
7.293049398,0.5112343201766625,1.9548097303554086,1.4432606585804983
7.297812263,0.46907147666482674,4.394338106047721,1.3081234668711113
7.302601742,0.3959945173180386,6.502175902604638,1.1874898730602472
7.307377888,0.28952622041898013,8.256274076765767,1.0871948303891013
7.312140752,0.14866681145765284,9.647702525401566,1.0111879467712903
7.316930231,-0.02595714327199679,10.680120356744345,0.9612478317706403
7.321706429,-0.23200511329436013,11.36883459528653,0.9368045982955147
7.326469294,-0.4653986379774931,11.739511195100865,0.9348818075462858
7.331258773,-0.7203616991063249,11.826610069586078,0.9501636076152703
7.336034919,-0.9895246544213171,11.67161983071084,0.9751870109698092
7.340797783,-1.2640897259728738,11.321168306885147,1.00065344858582
7.345587263,-1.5340549869764462,10.82508208616261,1.0158481736059772
7.35036346,-1.788492808780434,10.234462857775709,1.009150988441988
7.355126325,-2.0158776727511665,9.599840843495896,0.9686173284122953
7.359915804,-2.2044570176492844,8.969456804698806,0.8826051083622102
7.36469195,-2.342657367747727,8.387714643126332,0.7404200465679792
7.369454815,-2.4195164208677826,7.8938370745953,0.53295051387397
7.374244294,-2.4251301291530334,7.520747733296664,0.2532623938610827
7.379020492,-2.35110213566664,7.294194720501145,-0.10287494190878076
