Time (s),X (m/s^2),Y (m/s^2),Z (m/s^2)
6.008738333,0.3461556032389225,-0.3100622417325449,0.09308620696897937
6.018665333,-1.860111389435308,5.631031096440652,2.7569688503843817
6.028592333,-3.9522091202557696,11.452105668454902,5.3559792304472005
6.038518333,-5.87977962456558,17.03529477257717,7.827345118503993
6.048445333,-7.596829902096783,22.266829200586667,10.113117521342408
6.058372333,-9.063185859953743,27.039905700114947,12.16217910809488
6.068298333,-10.245773914156334,31.257413574276736,13.931948720500214
6.078225333,-11.119679307970262,34.83444334799226,15.389710934943752
6.088151333,-11.66893950441029,37.700509469700506,16.513517875355888
6.098078333,-11.887042373790196,39.80142830186025,17.29263100681743
6.108005333,-11.777111309135101,41.100802525206284,17.72749242807057
6.117931333,-11.351771954769182,41.58107287085074,17.829237354236902
6.127858333,-10.632707255692415,41.244107432268216,17.61878121620696
6.137785333,-9.649918561474804,40.11130784850241,17.12553471443314
6.147711333,-8.440720249712854,38.223220838648984,16.38581663985942
6.157638333,-7.048503652670363,35.63865325354435,15.441046403273068
6.167564333,-5.521313006097248,32.4332991339867,14.33580586376696
6.177491333,-3.910281736585153,28.697898324541008,13.1158631669226
6.187413792,-2.2679816037001452,24.535958154051873,11.826249651409302
6.197339792,-0.6467398660985224,20.061082688406223,10.509474486845923
6.207266792,0.9030193766160469,15.39396798430445,9.203951301278774
6.217193792,2.334354205408195,10.659136166441208,7.94269790226006
6.227119792,3.6052510399270794,5.981495207517523,6.752355494187343
6.237046792,4.679888297419535,1.4828239472156541,5.652558305141516
6.246973792,5.529672760916037,-2.721708041068885,4.6556686070800595
6.256899792,6.134010030124998,-6.526869791611855,3.7668758722517137
6.266826792,6.480778116659248,-9.840429941359679,2.9846423140437475
6.276752792,6.5664827345651915,-12.585835658035881,2.301460634573515
6.286679792,6.396084482219477,-14.70440549010436,1.7048745329631956
6.296606792,5.982502277515528,-16.156947962975003,1.1787002118753709
6.306532792,5.345814116826297,-16.92473983260588,0.7043792878073373
6.316459792,4.5121945223629405,-17.00982587465442,0.2623904484203656
6.326386792,3.5126455670848005,-16.43463433156251,-0.16635204043679797
6.336312792,2.3815918964672647,-15.240935479544218,-0.5991815745598735
6.346239792,1.1554170849995238,-13.488201180196596,-1.0505076581105612
6.356165792,-0.12898174040744112,-11.251447354350466,-1.530845946098127
6.366092792,-1.43555060380882,-8.618657442998817,-2.0460968265834945
6.376019792,-2.7302869090249415,-5.687893298243269,-2.5971075255946667
6.385945792,-3.9822522676696805,-2.564201805344846,-3.1795386637043594
6.395872792,-5.164356933616797,0.6435776637219374,-3.784040885647923
6.405799792,-6.2538970604125526,3.8260068081837715,-4.396731625749034
6.415725792,-7.23283989568219,6.8761543605868924,-4.999947220153119
6.425652792,-8.08786510970231,9.692536983261999,-5.5732321444554795
6.435578792,-8.810182276079365,12.181829421834468,-6.09451549831521
6.445505792,-9.39515468863075,14.261289870306145,-6.541415081825804
6.455432792,-9.841767903794421,15.860857380784557,-6.892601593800787
6.465358792,-10.151987460413906,16.92488802597037,-7.129149846088454
6.475285792,-10.330054092103387,17.413505452755604,-7.235800863279003
6.485212792,-10.381766406450197,17.30354958406056,-7.202059054833384
6.495138792,-10.313800365568229,16.589114518059457,-7.0230532894463495
6.505065792,-10.133111660709933,15.281672977299353,-6.700100644401866
6.514991792,-9.846460771511616,13.409789836312742,-6.240927522777234
6.524918792,-9.460090853523864,11.018431377958642,-5.659524671633628
6.534845792,-8.9795759509832,8.167880444095555,-4.975638740921516
6.544771792,-8.409842516067437,4.932271380116879,-4.213929763207088
6.554698792,-7.755352365546455,1.3977634656468438,-3.4028471322764107
6.564625792,-7.020421411181396,-2.3396222436615455,-2.5732937919008654
6.574551792,-6.209636813177753,-6.176470188953161,-1.7571590433618385
6.584478792,-5.328326468680555,-10.004700628616177,-0.9858051932252305
6.594405792,-4.383029668250174,-13.71451252166651,-0.28859267024623697
6.604331792,-3.381916779193945,-17.19747849382648,0.30847735565497747
6.614258792,-2.335108950639461,-20.34972116347478,0.783933712118803
6.624184792,-1.2548556318345172,-23.075089979887544,1.1217631973392999
6.634111792,-0.1555374642465832,-25.288248149478505,1.3120544712505018
6.644038792,0.9465258053754855,-26.91757082597788,1.3513321775953613
6.653964792,2.0334688540705206,-27.907749451190366,1.2425716766453643
6.663891792,3.0864669971254766,-28.221994211333783,0.9949012575369129
6.673817792,4.086490404866575,-27.843728512204613,0.6230155589768798
6.683744792,5.015185927095697,-26.77767766621977,0.14634070294485887
6.693671792,5.855831876637864,-25.05026975980898,-0.4119927750373959
6.703597792,6.5942998283568945,-22.70929031096654,-1.0263006845876808
6.713524792,7.219950821876868,-19.822763069048325,-1.6695445712630232
6.723451792,7.726392877344355,-16.477064996953178,-2.3145064900134704
6.733377792,8.11203326329198,-12.774320839250121,-2.9348760507670812
6.743304792,8.38037201031038,-8.829158242135689,-3.5062016895414976
6.753231792,8.540001154793659,-4.7649353885060926,-4.0066738145314185
6.763157792,8.604295100968999,-0.7095777783465278,-4.417721883436019
6.773084792,8.59079920595541,3.2088217771686836,-4.724420911821304
6.783010792,8.520344187028163,6.866475776205333,-4.915715414329305
6.792937792,8.415931639818181,10.148279767847413,-4.9844790336207705
6.802864792,8.301450031813399,12.95193040832096,-4.927434716936208
6.812790792,8.20029081460439,15.191627244892874,-4.7449630839611165
6.822717792,8.133940830647875,16.80121534133059,-4.440826674759582
6.832644792,8.120629977219751,17.7366450588292,-4.0218364515260445
6.842570792,8.174111996465257,17.977649619355084,-3.497484965992998
6.852497792,8.302651078306708,17.528569563112253,-2.8795678647250633
6.862423792,8.508277592201585,16.418284602035364,-2.1818114942137763
6.872350792,8.786362921494222,14.69924640939914,-1.4195192728231152
6.882277792,9.125546691050038,12.445639489388256,-0.6092436939571045
6.892203792,9.508030609412197,9.750730483375769,0.23151505240516945
6.902130792,9.910232785862677,6.723498123230638,1.0845882923202337
6.912057792,10.303775847296734,3.4846654519669418,1.9314049471042944
6.921983792,10.656762603588268,0.1622816592410528,2.7532567765382114
6.931910792,10.935275546602117,-3.1129784450728315,3.5315766009502862
6.941837792,11.105022185512096,-6.212615055338413,4.248242815258905
6.951763792,11.133037975204578,-9.015015230111898,4.885920854630031
6.961690792,10.989353097539087,-11.40988899295678,5.428447455984134
6.971616792,10.648529453285677,-13.30225329718274,5.86125698114029
6.981543792,10.090981039129618,-14.615806582425005,6.171841790935338
6.991470792,9.304005393124191,-15.29556364870617,6.350232012650286
7.001396792,8.282475746910787,-15.309654678541687,6.389474792971554
7.011323792,7.029170453725216,-14.650232099228548,6.286089179815059
7.021250792,5.554743730322782,-13.33347202607489,6.040469663647263
7.031176792,3.8773651744287,-11.398699463239636,5.657208958896159
7.041103792,2.0220721978833986,-8.906704273708453,5.145309218887765
7.051030792,0.0198892426575336,-5.937345313283296,4.518251374475664
7.060956792,-2.093228223372001,-2.5865619424052433,3.793895440540872
7.070883792,-4.277566775473865,1.037074297901856,2.9941906870923796
7.080809792,-6.490889612846329,4.816128681706679,2.144683133144151
7.090736792,-8.689681701160698,8.628253406229948,1.2738181572844287
7.100663792,-10.830360615114762,12.350183732791871,0.41204736791558355
7.110589792,-12.870415377448703,15.861653458078415,-0.4092393474727339
7.120516792,-14.769443457051716,19.04911438898276,-1.1589237829574575
7.130443792,-16.490064322335034,21.809158014494635,-1.8074667264081266
7.140369792,-17.99869618939415,24.051552456958834,-2.3282565256752816
7.150296792,-19.26619048638044,25.701823472455608,-2.6989326181144646
7.160222792,-20.26832575335465,26.703324487687322,-2.9026100023525694
7.170149792,-20.98616898111992,27.018757293218787,-2.928926642732447
7.180076792,-21.406317560079625,26.63112173422176,-2.7748366764651986
7.190007083,-21.521038733135793,25.54408879569261,-2.445079023603222
7.199934083,-21.328325163475224,23.7818058246547,-1.9522646848901835
7.209861083,-20.831884212468925,21.388154256589047,-1.3165479674599116
7.219787083,-20.041074265228197,18.425488608301034,-0.5648773192489104
7.229714083,-18.97079424076094,14.97289127346817,0.27014297846508967
7.239640083,-17.64132359610866,11.123982618129144,1.1517154686401736
7.249567083,-16.078101434825115,6.984331954977222,2.0405471989564044
7.259494083,-14.311426191253487,2.668522905790298,2.896680181123648
7.269420083,-12.376052738367015,-1.7030642043758137,3.681349398108611
7.279347083,-10.31066242651696,-6.007681047517179,4.358767120559308
7.289274083,-8.157184160104583,-10.12377065551382,4.8977412239814955
7.299200083,-5.959951421014783,-13.93456943425678,5.273048080168317
7.309127083,-3.7646907200708255,-17.331657310630995,5.466496690027649
7.319054083,-1.61735019726673,-20.21835614871145,5.467638969381895
7.328980083,0.4372084079855335,-22.512872598497978,5.274100268212072
7.338907083,2.3566167201830654,-24.15107938086641,4.891523369619857
7.348833083,4.102454465966732,-25.088829409906936,4.333137915013889
7.358760083,5.641689151320483,-25.30370114573744,3.6189852835990437
7.368687083,6.948028698619384,-24.796082438461973,2.774846309254937
7.378613083,8.003109348772508,-23.589515284925522,1.8309354307834833
7.388540083,8.797439938724317,-21.730246615667003,0.8204388114959892
7.398467083,9.33102818639293,-19.285960861882593,-0.22201654047213945
7.408393083,9.613625846072718,-16.343707297226054,-1.2618734651469965
7.418320083,9.664547731395379,-13.007075560133188,-2.2660528870064915
7.428247083,9.51204345177501,-9.392711694176153,-3.2041916603135565
7.438173083,9.19222782669508,-5.626300467524696,-4.049659869976187
7.448100083,8.747603502520672,-1.8381653379765626,-4.780326047326727
7.458026083,8.225234811853959,1.8413455821162228,-5.379057713372185
7.467953083,7.674653415770323,5.286510704784844,-5.833962948494562
7.477880083,7.145592415612798,8.380745675004391,-6.138394031995451
7.487806083,6.685655858212735,11.020801954030873,-6.290744930101097
7.497733083,6.3380349524635715,13.120493417809588,-6.294080412259818
7.507660083,6.139381187404697,14.613808233999826,-6.155636715629876
7.517586083,6.117940268460109,15.45728545286232,-5.886233259009286
7.527513083,6.292039778221064,15.631562550283277,-5.499633097498189
7.537440083,6.669008167250706,15.142030792787107,-5.01188704002126
7.547366083,7.244583600059618,14.01856862941461,-4.440692364974904
7.557293083,8.002848985237618,12.314358149614224,-3.8047915827662946
7.567219083,8.916705095270245,10.103824860171093,-3.1234298800690317
7.577146083,9.948868115121398,7.479775564616741,-2.415882281804388
7.587073083,11.05335243531458,4.549841818932303,-1.70105383666139
7.596999083,12.177375256910809,1.4323658931089596,-0.9971489638977701
7.606926083,13.263597859321152,-1.7481092632832902,-0.3214002241462036
7.616853083,14.252600387648306,-4.865566591677945,0.31015718356072314
7.626779083,15.085473714663,-7.79726864617655,0.8828806069977982
7.636706083,15.706404058162162,-10.428347986665086,1.3836996558940542
7.646632083,16.06512432048695,-12.65605147017156,1.801292757797756
7.656559083,16.119111560979295,-14.393471402518808,2.126269017768068
7.666486083,15.83542378576568,-15.57261923218972,2.3513595319042526
7.676412083,15.192091987067622,-16.146726466135714,2.471618062320315
7.686339083,14.179014014702062,-16.091692425322503,2.4846267954556978
7.696266083,12.798331781741082,-15.406638499933328,2.390698540303232
7.706192083,11.064307008217089,-14.113571378383524,2.1930621638527517
7.716119083,9.002738167070868,-12.25619949224729,1.8980136071745175
7.726046083,6.649980076368343,-9.897983556386741,1.5150109974534083
7.735972083,4.051638058709227,-7.119530721285677,1.0566898921942016
7.745899083,1.26101262411484,-4.015461504872766,0.5387743466346484
7.755825083,-1.6626298131544888,-0.6908898487421282,-0.02013826525668051
7.765752083,-4.655888138641532,2.7423394652726736,-0.5989360567765294
7.775679083,-7.653093116719374,6.169513965282658,-1.1745058056733884
7.785605083,-10.588149640301747,9.47688228780359,-1.7224031153690513
7.795532083,-13.396302639423672,12.555324918890086,-2.2176727349232133
7.805459083,-16.01578287751233,15.303757529035055,-2.6358014627453987
7.815385083,-18.389297509986086,17.632174093058808,-2.9537740605174716
7.825312083,-20.465339245388776,19.4642547788679,-3.1511897806638918
7.835238083,-22.199297042899076,20.739481919918987,-3.2113843969083677
7.845165083,-23.554360106611554,21.41472583585642,-3.1224914711210494
7.855092083,-24.502214996964618,21.46528050154368,-2.878368860907839
7.865018083,-25.02354253327715,20.88534652609068,-2.4793140905514615
7.874945083,-25.108326401380587,19.687974722321947,-1.932496591835843
7.884872083,-24.75598846373306,17.90449673849582,-1.2520468697016736
7.894798083,-23.975366025819387,15.583478959073773,-0.45876318007036954
7.904725083,-22.784543310054726,12.78924189860833,0.42057469225322075
7.914652083,-21.210543474854102,9.599990455412275,1.3542606249302416
7.924578083,-19.288880036810504,6.105602556929985,2.307029374714245
7.934505083,-17.062959396341846,2.4051267430374192,3.241653782751825
7.944431083,-14.583321011584896,-1.3959563489413138,4.120675356741194
7.954358083,-11.906699705963199,-5.188648517191037,4.908166357872191
7.964285083,-9.094896239357443,-8.86345968030614,5.571423416911038
7.974211083,-6.213447919802156,-12.313476072306337,6.0825003462216
7.984138083,-3.3301006439307637,-15.43739978144637,6.419500325156276
7.994065083,-0.5130967639508972,-18.142487067284705,6.56756390953803
8.003991083,2.170691579394839,-20.347312187488104,6.519507796668841
8.013918083,4.657738041325362,-21.98428296960065,6.276088428259518
8.023844083,6.889885639050975,-23.00183393073662,5.845883380460972
8.033771083,8.816343793899776,-23.36622289134255,5.2448018296956995
8.043698083,10.39557347698646,-23.062858929630327,4.495253404828503
8.053624083,11.596967996501187,-22.097094775618185,3.625022637026871
8.063551083,12.402234898382655,-20.4944269657387,2.6659135634396205
8.073478083,12.806388596970764,-18.30006346444864,1.6522442134789614
8.083404083,12.818274537200713,-15.577841208703415,0.6192808363479396
8.093331083,12.460564119979598,-12.408503761807873,-0.39829633711231216
8.103258083,11.76918457444419,-8.88737894615128,-1.36781148560933
8.113184083,10.792177601384319,-5.121524239160295,-2.2598260969760884
8.123111083,9.588012289345196,-1.2264309637219175,-3.0491347646170186
8.133037083,8.223408700722207,2.677604306165358,-3.7154915088958784
8.142964083,6.770756185570576,6.469320929731313,-4.244054146199305
8.152891083,5.305233055021099,10.030420805427685,-4.625553435391805
8.162817083,3.9017505673377406,13.249450321317706,-4.856210028761094
8.172744083,2.6318537532539525,16.025508278803954,-4.937434281034357
8.182671083,1.5607144919600828,18.27165450958823,-4.8753514893904555
8.192594333,0.7443488542991434,19.917901284109334,-4.6801982652401835
8.202521333,0.2271816203729205,20.913680296791874,-4.365634903536522
8.212447333,0.0400666782792068,21.22969209223662,-3.9480147796142795
8.222374333,0.1988533916848119,20.85906227607811,-3.445646186048666
8.232301333,0.7035667179608135,19.817749589080535,-2.878075734991199
8.242227333,1.538243658130211,18.14417462866709,-2.265416365378839
8.252154333,2.671441380124929,15.898064251324463,-1.6277376004130255
8.262081333,4.057404000620042,13.158534829693265,-0.9845309367624526
8.272007333,5.637846538774014,10.021466615635894,-0.35425860771207845
8.281934333,7.3442870449244415,6.59625023841044,0.24601102400322658
8.291860333,9.100832468952314,3.002013429765354,0.8008835071863111
8.301787333,10.827301566450318,-0.636540026188541,1.2968409635703382
8.311714333,12.44255016418985,-4.193527678485725,1.7223788073327722
8.321640333,13.867851576524009,-7.546356829930498,2.0680908431798066
8.331567333,15.0301789514332,-10.580091433726633,2.326718158866489
8.341494333,15.865237653280333,-13.191545181719786,2.4931759974606087
8.351420333,16.32010508325403,-15.292936845133147,2.564569054974504
8.361347333,16.355353201600277,-16.814960184107765,2.5402004031906995
8.371273333,15.946555939962373,-17.709144326936322,2.4215744218394373
8.381200333,15.085119343128682,-17.949410985868646,2.2123910999541954
8.391127333,13.778414349414255,-17.532771673902698,1.9185276508815157
8.401053333,12.049235808963747,-16.479149466380903,1.5480025272798388
8.410980333,9.934650589573819,-14.830352304287674,1.1109158932290621
8.420907333,7.484327572244337,-12.648264031665962,0.619359306152141
8.430833333,4.7584610321604135,-10.012351771390964,0.0872859060902161
8.440760333,1.8254070673169915,-7.01661208237532,-0.46966898932604195
8.450686333,-1.2408475055118675,-3.766093406352774,-1.0344278557975397
8.460613333,-4.363270689250915,-0.37313934841748625,-1.5887821410346619
8.470540333,-7.464322645381132,3.046502515562756,-2.1137832945763813
8.480466333,-10.468355409534466,6.377567118150749,-2.590218587787978
8.490393333,-13.303800535021567,9.50902446965752,-2.9991714837084675
8.500319333,-15.905086192599317,12.33758253529748,-3.322659880696055
8.510246333,-18.21424157431008,14.770840523976027,-3.5443379841090668
8.520173333,-20.18216252911102,16.730010198006518,-3.6502390177598385
8.530099333,-21.76952771068646,18.152141223705915,-3.629526857565127
8.540026333,-22.9473687682476,18.991805357372442,-3.4752156881841647
8.549952333,-23.6973109938052,19.222212958856147,-3.1848090812810677
8.559879333,-24.011512131748603,18.835753436732574,-2.7608049133727453
8.569806333,-23.892336407982107,17.84396806223643,-2.211011791579281
8.579732333,-23.35180757637873,16.276978298495145,-1.5486275568522823
8.589659333,-22.410887947107327,14.182404554116765,-0.7920423437005808
8.599586333,-21.098629129480617,11.623818664109619,0.03565166238413902
8.609512333,-19.45123456596967,8.67877893077311,0.9074358092819629
8.619439333,-17.511064954929292,5.436500745196159,1.7933909605925702
8.629365333,-15.32560718444201,1.9952203344114467,2.6619169590408878
8.639292333,-12.946417230787809,-1.5406852922567573,3.4810751316527218
8.649219333,-10.428038986436547,-5.063753157523746,4.219977843486139
8.659145333,-7.826895165942524,-8.466589456765677,4.850149293928017
8.669072333,-5.20014399177833,-11.645046477363733,5.346785943640516
8.678998333,-2.604496610908722,-14.501340188572355,5.689852350590679
8.688925333,-0.09499495752928219,-16.9470263777022,5.8649583615213245
8.698852333,2.2762426346630242,-18.905753577730433,5.863976096329733
8.708778333,4.461291369524917,-20.31571259543384,5.6853693500662565
8.718705333,6.417678603207632,-21.131705150376654,5.334223117313898
8.728631333,8.109594209480946,-21.32675821073083,4.8219760832677006
8.738558333,9.509006633367008,-20.89321669406585,4.165873572359589
8.748485333,10.596631247901794,-19.843256304556967,3.388172454364415
8.758411333,11.36269316522185,-18.20877161008416,2.5151427391514694
8.768338333,11.80742618316977,-16.04061300270629,1.5759221799729861
8.778265333,11.94125415059993,-13.407170065944939,0.6012882341721733
8.788191333,11.784611466628446,-10.392326823422806,-0.37758588142622973
8.798118333,11.367375719311953,-7.092843670184936,-1.3303279808008728
8.808044333,10.72790658553042,-3.615248137702939,-2.228461440675034
8.817971333,9.911708968630856,-0.07233924259267813,-3.0463525425757396
8.827898333,8.969762185645207,3.4205732927214627,-3.76197753443251
8.837824333,7.956578103117882,6.7495631118211215,-4.357489838318086
8.847751333,6.92806751193891,9.805977534029742,-4.819581926282681
8.857677333,5.939304898864464,12.490186544936842,-5.139649161431684
8.867604333,5.042287202252539,14.715056680086352,-5.313772825415867
