Time (s),Acceleration x (m/s^2),Acceleration y (m/s^2),Acceleration z (m/s^2)
6.001610272,0.18952568053250327,-0.896868951601085,-0.053606226013775966
6.006364908,-0.5679647970414248,-0.07371043026204321,0.010732838726327042
6.011119543,-1.3190604388682108,0.7399509243997818,0.07790061106917913
6.015874179,-2.058561813276298,1.5374051023438815,0.14742865138183758
6.020628814,-2.781409440391545,2.312165434291052,0.21880477377979637
6.025383449,-3.48273705440503,3.058044745055925,0.2914772549592876
6.030138085,-4.157922506629696,3.769227395372495,0.36485941886629986
6.03489272,-4.802635659786688,4.440336190106235,0.4383345397059629
6.039647356,-5.412882631970669,5.066493176879791,0.511261014125101
6.044401991,-5.9850457678608215,5.643373426958935,0.5829777621382997
6.049156627,-6.515918750883763,6.167250982235206,0.6528098236526244
6.053911262,-7.002736326635262,6.635036267780372,0.720074122371037
6.058665897,-7.443198184611835,7.044304405609441,0.7840853717350007
6.063420533,-7.835486638865082,7.393314017449434,0.844162099517795
6.068175168,-8.17827785392445,7.681016267674515,0.8996327698193367
6.072929804,-8.47074647560204,7.907054067615549,0.9498419840379214
6.077684439,-8.712563643060005,8.071751535034675,0.9941567456404096
6.082439074,-8.903888475419638,8.176093973812428,1.0319727764310795
6.08719371,-9.04535324034884,8.221698805159741,1.062720873536331
6.091948345,-9.138042520878528,8.210778039399587,1.0858732955213488
6.096702981,-9.183466797697022,8.14609302311099,1.1009501621887432
6.101457616,-9.183530955021153,8.030902326850436,1.1075258452553147
6.106212252,-9.14049829674969,7.868903750651506,1.1052353162242814
6.110966887,-9.056950724214301,7.664171515354714,1.0937804037405328
6.115721522,-8.935745776132714,7.421089775428533,1.072935896322398
6.120476158,-8.77997126460789,7.14428363192359,1.0425554087846547
6.125230793,-8.592898258254738,6.8385488419445215,1.0025769134081948
6.129985429,-8.377933165608518,6.50878141366257,0.9530278216368685
6.134740064,-8.138569660231193,6.159908244244101,0.8940294903767844
6.139494699,-7.878341164881116,5.796819903586888,0.8258010200980981
6.144249335,-7.600774577124871,5.424306591473292,0.748662210633656
6.14900397,-7.309345874036138,5.046998202204302,0.6630355449621187
6.153758606,-7.007438180231074,4.669309321868812,0.5694470809525152
6.158513241,-6.698302822571862,4.2953898622174265,0.4685261453004575
6.163267877,-6.385023827729667,3.929081904791637,0.3610037418262936
6.168022512,-6.070486246906378,3.5738831926307078,0.24770960700713868
6.172777147,-5.757348616971313,3.2329175676190136,0.1295678681704563
6.177531783,-5.44801979076306,2.9089125123851303,0.007591283372028776
6.182286418,-5.144640293053109,2.6041838196332705,-0.1171259340442419
6.187041106,-4.849068284273095,2.320627281817717,-0.24341667934490513
6.191795741,-4.562870142887587,2.05971717288473,-0.3700508585272808
6.196550377,-4.287315610181397,1.8225111837402874,-0.49574655586204286
6.201305012,-4.0233773788281555,1.6096613760141436,-0.6191823726129474
6.206059647,-3.7717349493231036,1.4214306359604865,-0.7390108226030287
6.210814283,-3.532782526518981,1.2577140428881326,-0.8538726517388371
6.215568918,-3.3066406823945123,1.1180645148319517,-0.962411931693538
6.220323554,-3.0931714710815337,1.0017220583225712,-1.0632917627761027
6.225078189,-2.89199664829207,0.9076459287594443,-1.155210407638172
6.229832824,-2.702518619757504,0.8345490023753402,-1.2369176659403376
6.23458746,-2.523943722182733,0.7809336691264885,-1.3072312904911634
6.239342095,-2.3553074255094115,0.7451285768277924,-1.36505323781576
6.244096731,-2.19550103685685,0.7253255890566437,-1.4093855407820899
6.248851366,-2.043299484167591,0.7196163611936872,-1.4393455880044903
6.253606002,-1.8973897610670036,0.7260279887378388,-1.454180594440669
6.258360637,-1.756399623417177,0.7425572379022491,-1.4532810500650548
6.263115272,-1.6189261420555694,0.7672029285985176,-1.4361929388555024
6.267869908,-1.4835637346773076,0.7979961024230313,-1.402628528609239
6.272624543,-1.3489313220637296,0.8330276714922791,-1.3524755432566025
6.277379179,-1.2136982791604416,0.8704733064778358,-1.2858045432521892
6.282133814,-1.0766088791765598,0.9086153827575967,-1.2028743561382262
6.286888449,-0.9365049582835487,0.945861861255247,-1.104135418315343
6.291643085,-0.7923465590755386,0.9807620345570913,-0.9902309102357636
6.29639772,-0.6432303422375715,1.012019118818135,-0.8619955904805641
6.301152356,-0.4884055874983162,1.0384997176026929,-0.7204522593389848
6.305906991,-0.327287636699788,1.0592402251287578,-0.5668058094119172
6.310661679,-0.1594686635920772,1.073450273431454,-0.4024348492131034
6.315416314,0.015274313283777359,1.080513360742135,-0.22888091548035583
6.320170897,0.1969742265586165,1.0799848269219345,-0.047835320626851974
6.324925585,0.38547158521546954,1.0715873662020072,0.13887628687441933
6.32968022,0.5804149181194804,1.0552042879665968,0.329311539730871
6.334434856,0.7812639943596031,1.0308707530824888,0.5214310057104228
6.339189491,0.987295749022651,0.9987632265000713,0.7131197061409673
6.343944127,1.1976128142507232,0.9591873966800702,0.9022102968383877
6.348698762,1.4111545279572768,0.91256481900906,1.086507680263354
6.353453397,1.6267102665820838,0.8594185439216929,1.2638147901170904
6.358208033,1.842934923895203,0.8003579910511617,1.4319592636785552
6.362962668,2.0583663352231905,0.7360633284188626,1.5888206932656337
6.367717304,2.271444425649593,0.6672696104662623,1.7323581266411132
6.372471939,2.4805318418074065,0.5947509206605502,1.86063746742771
6.377226574,2.683935809916768,0.5193047535357389,1.9718584111733561
6.38198121,2.879930947845337,0.441736857470267,2.0643805412108147
6.386735845,3.066782746345073,0.36284674341405465,2.1367482015079156
6.391490481,3.2427714244443098,0.28341404636983614,2.187713761933594
6.396245116,3.406215856454994,0.2041859059319448,2.216258895370407
6.400999752,3.5554972634109676,0.1258655098426989,2.2216134963559946
6.405754439,3.6890823602665006,0.04910192065084823,2.2032718875739206
6.410509074,3.805545652255002,-0.025518719486292998,2.1610059831919934
6.41526371,3.9035905799234136,-0.09748053662148876,2.09487510604974
6.420018345,3.9820692229526053,-0.1663437823405485,2.0052321883928115
6.424772981,4.0400002882054995,-0.23174918341012238,1.8927261232286086
6.429527616,4.076585127630271,-0.29342079182269637,1.7583000763716092
6.434282252,4.091221556708735,-0.35116736735920645,1.6031856195758318
6.439036887,4.083515273745664,-0.40488234701970505,1.4288926043863817
6.443791522,4.0532887133964115,-0.4545424753618363,1.2371947645831125
6.448546158,4.000587202894361,-0.5002051862713643,1.0301111103972385
6.453300793,3.9256823252428146,-0.5420048396097368,0.8098832568158526
6.458055429,3.8290724297672027,-0.580147925599868,0.5789489079530669
6.462810064,3.71148026704993,-0.6149073560902387,0.339911797097444
6.467564699,3.5738477625900766,-0.6466159654352573,0.09550845591837677
6.472319335,3.417327981406635,-0.6756593450378358,-0.15142774484455915
6.477074022,3.2432743737210212,-0.7024681349127809,-0.39800477831129666
6.481828658,3.0532274291430817,-0.7275098931741376,-0.6413118080533958
6.486583293,2.8488989028923055,-0.751280660327267,-0.8784600919282292
6.491337929,2.6321538121196086,-0.7742963298864729,-1.10662429968665
6.496092564,2.404990432942767,-0.797083930437553,-1.3230835738467503
6.500847199,2.1695185588068875,-0.8201729171584053,-1.5252616467060698
6.505601835,1.927936307565402,-0.8440865633018593,-1.7107653204047737
6.51035647,1.6825057875914147,-0.8693335344536689,-1.8774206217584504
6.515111106,1.4355279516740769,-0.8963997206678187,-2.0233059591948384
6.519865741,1.1893169808704602,-0.925740394020979,-2.146781635654622
6.524620377,0.9461745482229199,-0.9577727519505338,-2.246515109390271
6.529375012,0.7083643132005093,-0.9928689002925936,-2.321501446989745
6.534129647,0.4780869900034403,-1.031349324741039,-2.371078486327499
6.538884283,0.2574563147261957,-1.0734768961597705,-2.394936329580581
6.543638918,0.04847620836612119,-1.1194514542912748,-2.393120919160707
6.548393606,-0.14698060121644096,-1.1694050158823044,-2.3660316009943747
6.553148241,-0.327192269577374,-1.2233976564666367,-2.314412731168682
6.557902877,-0.49060564040142074,-1.2814141190935622,-2.239339518094901
6.562657512,-0.6358519938112241,-1.3433612073236165,-2.1421984064847095
6.567412147,-0.7617605916059935,-1.4090660231773338,-2.0246624028015408
6.572166783,-0.8673698960324268,-1.4782751128620604,-1.8886618206854464
6.576921418,-0.9519363628847551,-1.5506545833705612,-1.7363509968646538
6.581676054,-1.0149407360584437,-1.625791250592243,-1.5700715969389472
6.586430689,-1.0560917992257126,-1.7031948734503568,-1.392313192510345
6.591185324,-1.075327570050753,-1.7823015180283706,-1.2056718390140626
6.59593996,-1.072813951998932,-1.8624780804331873,-1.0128074128174787
6.600694595,-1.0489408875578567,-1.9430279776416337,-0.816400477841711
6.605449283,-1.0043160845574104,-2.0231979927064017,-0.6191094499991031
6.610203918,-0.939756414437201,-2.102186235690675,-0.42352881492107775
6.614958554,-0.8562771075429909,-2.1791511558449836,-0.2321491309230818
6.619713189,-0.7550788950749467,-2.2532215149824633,-0.04731951311359007
6.624467824,-0.63753326922085,-2.3235072076566126,0.12878675614386673
6.62922246,-0.5051660516418347,-2.389110791239097,0.2942029116119237
6.633977095,-0.3596394756951185,-2.4491395687512827,0.4471951868860859
6.638731731,-0.2027329998337766,-2.5027180496386485,0.5862846893476575
6.643486366,-0.036323078899926003,-2.549000598946314,0.7102643658647193
6.648241002,0.13763787322274126,-2.5871840739899885,0.8182108620957597
6.652995637,0.3171430918745165,-2.616520240051238,0.9094911834092899
6.657750324,0.5001534013839969,-2.6363277531868428,0.9837641672266679
6.66250496,0.6846192477348719,-2.6460034991239905,1.0409768727349047
6.667259595,0.8685025886204054,-2.645033082494847,1.0813560829199416
6.672014231,1.0497984102859756,-2.6330002702983366,1.105395194906853
6.676768866,1.2265556468843566,-2.609595207276694,1.1138368472553446
6.681523502,1.3968972855372526,-2.574621238590658,1.1076516969176446
6.686278137,1.5590394488801127,-2.5280001965130596,1.0880138137840911
6.691032772,1.711309256742657,-2.4697760326109406,1.0562732068212655
6.695787408,1.8521612800839453,-2.400116704798764,1.0139260324731014
6.700542043,1.9801924137041242,-2.3193142593774554,0.9625830631321471
6.705296679,2.0941550099582726,-2.2277830812356947,0.9039370111532595
6.710051366,2.192968134075742,-2.1260563200706906,0.8397293120830169
6.714806002,2.275726823074968,-2.014780535827774,0.771716969211706
6.719560637,2.3417092548058105,-1.8947086414432788,0.701640049610436
6.724315272,2.390381761118226,-1.7666912542941677,0.6311903988684102
6.729069908,2.4214016488140553,-1.6316665985558745,0.5619821075310908
6.733824543,2.4346178226669233,-1.4906491281968581,0.49552421718227924
6.738579179,2.43006923485008,-1.3447170640222113,0.43319609952141386
6.743333814,2.4079812130282265,-1.194999057582073,0.3762258798048226
6.748088449,2.3687597439413537,-1.0426602095600646,0.3256722092473208
6.752843085,2.312983809992957,-0.8888876802321335,0.28240962191038327
6.757597772,2.241395893325274,-0.7348761346062651,0.24711764213588025
6.762352408,2.15489077582803,-0.5818132648616944,0.22027373984533372
6.767107043,2.0545027754684404,-0.4308656277001764,0.20215016350851903
6.771861679,1.9413915702884736,-0.28316502423936063,0.19281461450870538
6.776616314,1.8168267723069431,-0.13979563521094174,0.1921346623030483
6.781370949,1.6821714250166264,-0.0017821046586522476,0.19978573781690848
6.786125585,1.538864610374395,0.12992125860974144,0.2152624838673242
6.79088022,1.3884033638340532,0.2544400203499412,0.237893187209511
6.795634856,1.2323241083074485,0.3709877903827393,0.26685696814678506
6.800389543,1.0721838289260468,0.47887294458348184,0.3012033614686845
6.805144179,0.9095412190290015,0.5775038554623028,0.33987388746404573
6.809898814,0.7459380329936957,0.6663926208438954,0.3817251843171536
6.814653449,0.582880882705805,0.745157311969536,0.4255532535327192
6.819408085,0.4218237113136231,0.8135227914990645,0.4701183581819764
6.82416272,0.2641511703768959,0.8713201775292893,0.5141701096645266
6.828917356,0.11116311477497742,0.9184850512480954,0.5564722822677352
6.833671991,-0.035939585863359345,0.9550545228219682,0.5958269060184914
6.838426627,-0.17606773942144024,0.9811632823933936,0.6310972071132964
6.843181262,-0.30825486926490286,0.997038770659094,0.6612289915190133
6.847935949,-0.4316664640144175,1.0029956065863883,0.6852701010000029
6.852690585,-0.5456073310132127,0.999429408708053,0.7023876114663911
6.85744522,-0.6495269723906186,0.9868101415250037,0.7118824904458106
6.862199856,-0.7430229303991649,0.9656751103333285,0.7132014826105012
6.866954491,-0.8258420768540945,0.9366217168339586,0.7059460483339497
6.871709127,-0.897879849642012,0.9003000747920574,0.6898782387705152
6.876463762,-0.9591774670020414,0.8574055704686631,0.6649234505346083
6.881218397,-1.0099171772826627,0.8086714373069103,0.6311700624276537
6.885973033,-1.0504156278937817,0.7548613992348128,0.5888660147299895
6.89072772,-1.0811154620229717,0.6967624227567036,0.5384124473944399
6.895482356,-1.1025752751865845,0.635177605463846,0.4803545661503144
6.900236991,-1.115458085625637,0.5709192182501238,0.41536995413392486
6.904991627,-1.1205184926882499,0.5048019107176696,0.3442545902976917
6.909746262,-1.1185887154243186,0.43763608414914784,0.26790687372321537
6.914500897,-1.1105637194566147,0.37022143397733237,0.1873099845058488
6.919255533,-1.0973856536408735,0.3033406637124179,0.10351293680711596
6.924010168,-1.0800278289617427,0.23775337449552614,0.01761069801520016
6.928764856,-1.0594784803939359,0.17419013848262901,-0.06927623996320402
6.933519491,-1.0367245579247335,0.11334676976957524,-0.1560224449224236
6.938274127,-1.0127357953726186,0.055878813183754254,-0.24151789067238835
6.943028762,-0.9884493047364635,0.0023962785849092174,-0.32468767603356424
6.947783397,-0.964754939152844,-0.04654134414788883,-0.4045107362710413
6.952538033,-0.9424816587064514,-0.09042974707063861,-0.4800371814422254
6.957292668,-0.9223851200634916,-0.12882409441795842,-0.5504039170982452
6.962047304,-0.9051366930310744,-0.16134288765285726,-0.6148482316773083
6.966801939,-0.891314084268833,-0.18767134891521345,-0.6727190753659774
6.971556627,-0.8813937195419582,-0.20756426577876025,-0.7234858119828691
6.976311262,-0.8757450003937342,-0.22084824186729202,-0.7667443004679457
6.981065897,-0.874626510015122,-0.22742330155874327,-0.8022202505549676
6.985820533,-0.8781841997810372,-0.2272638021900732,-0.8297698868847477
6.990575168,-0.8864515465403514,-0.22041861341918673,-0.8493780362384253
6.995329804,-0.8993516341085447,-0.20701053056286714,-0.8611538179140091
7.000084439,-0.9167010813107054,-0.18723489693438777,-0.8653241665362996
7.004839127,-0.9382157127371231,-0.16135741965150507,-0.8622254509773466
7.009593762,-0.9635178459494471,-0.12971117420647896,-0.852293474317827
7.014348397,-0.9921450491154675,-0.09269280527167312,-0.8360521497921595
7.019103033,-1.023560205235616,-0.050757944554521664,-0.8141011483746691
7.023857668,-1.0571627030428539,-0.004415880598487907,-0.7871028069465235
7.028612304,-1.0923005605457943,0.04577647035060173,-0.7557685735659786
7.033366939,-1.128283275497319,0.09922122963799365,-0.7208452498664817
7.038121574,-1.164395188225231,0.15528678250147432,-0.6831012715403885
7.042876262,-1.199909136517316,0.21331547975593795,-0.6433132475870562
7.047630897,-1.2341001797353153,0.27263172111760536,-0.6022529586197007
7.052385533,-1.2662591700894117,0.33255032087072717,-0.5606749947919087
7.057140168,-1.2957059530312822,0.39238505355313075,-0.5193051951642029
7.061894804,-1.3218019859607368,0.45145727659161405,-0.4788300324942888
7.066649439,-1.34396217480643,0.509104527947602,-0.4398870700086031
7.071404074,-1.3616657414787283,0.5646889993298,-0.403056598909111
7.07615871,-1.374465951667953,0.6176057888683854,-0.36885454631532855
7.080913345,-1.3819985518816764,0.6672908408772299,-0.3377267223394996
7.085668033,-1.3839887867442162,0.7132284841528678,-0.3100444517405305
7.090422668,-1.3802568920241862,0.75495848401615,-0.2861016103145396
7.095177304,-1.3707219851140822,0.7920825269513669,-0.2661130595662203
7.099931939,-1.3554043022127948,0.8242700602748905,-0.2502144463163075
7.104686574,-1.3344257596523768,0.8512634128860919,-0.2384633079409324
7.10944121,-1.3080088449742016,0.8728821270140815,-0.23084140011084794
7.114195845,-1.2764738707507617,0.8890264352250254,-0.22725814325200325
7.118950533,-1.2402346500380081,0.8996798220494481,-0.22755506723629684
7.123705168,-1.1997926760877808,0.9049106156455479,-0.23151112139868305
7.128459804,-1.1557299100504999,0.9048725621086441,-0.23884870883848067
7.133214439,-1.108700298519001,0.8998043435160105,-0.24924029977913104
7.137969074,-1.0594201577314877,0.8900280106929078,-0.2623154780977045
7.14272371,-1.0086575730557468,0.875946313081314,-0.27766827758869445
7.147478345,-0.95722097117005,0.8580389209393307,-0.2948646697515931
7.152233033,-0.905947028407158,0.8368575491730647,-0.31345007259462027
7.156987668,-0.8556880823513133,0.8130200070429557,-0.33295675990348145
7.161742304,-0.8072992152891416,0.7872032133718798,-0.3529110624641194
7.166496939,-0.7616251778088968,0.7601352322842202,-0.37284026662995046
7.171251574,-0.7194873189583786,0.7325863995068079,-0.39227913098070316
7.17600621,-0.6816706860517036,0.7053596234824012,-0.4107759579908634
7.180760845,-0.6489114525066149,0.6792799586753722,-0.4278981737949898
7.185515533,-0.6218848260214894,0.6551835602726185,-0.44323738442170263
7.190270168,-0.6011935820402877,0.6339061398721696,-0.4564138904162186
7.195024804,-0.5873573589395323,0.6162710506579193,-0.4670806528599953
7.199779439,-0.5808028418534695,0.603077138007914,-0.47492671195020786
7.204534074,-0.5818549516729075,0.5950864975579674,-0.47968006439954425
7.20928871,-0.5907291446769276,0.5930122875411507,-0.48111000821832267
7.214043345,-0.6075249167284898,0.5975067458245635,-0.4790289635271522
7.218798033,-0.6322205943057565,0.6091495644985463,-0.4732937766995301
7.223552668,-0.6646694831714732,0.6284367761175687,-0.46380651316828425
7.228307304,-0.7045974344210486,0.6557703056789873,-0.450514742343271
7.233061939,-0.7516018770620758,0.6914483410474659,-0.4334113167633471
7.237816574,-0.8051523560886509,0.7356566716335764,-0.4125336471321092
7.24257121,-0.8645926050386336,0.7884611405198926,-0.387962475461236
7.247325845,-0.9291441720078931,0.8498013487027808,-0.35982015037911086
7.252080533,-0.9979116077573562,0.9194857415340999,-0.32826841199576773
7.256835168,-1.0698892135778288,0.9971881967028394,-0.29350569873548077
7.261589804,-1.143969334647226,1.0824462201158958,-0.25576399531097666
7.266344439,-1.2189521714290825,1.1746608407765988,-0.21530524942341248
7.271099074,-1.2935570670233716,1.2730982782535925,-0.17241739459112826
7.27585371,-1.3664352122096777,1.3768934367146584,-0.12741002734227763
7.280608345,-1.4361836922222866,1.4850552579676937,-0.08060979829035012
7.285363033,-1.5013607801419595,1.5964739427120798,-0.03235558765029487
7.290117668,-1.560502361351513,1.7099300244590752,0.017006454232545556
7.294872304,-1.6121393520812926,1.8241052545502696,0.0671279125806119
7.299626939,-1.654815953110472,1.937595229663023,0.11766306573297526
7.304381574,-1.6871085577629545,2.0489236654853333,0.16827369769689948
7.30913621,-1.7076451120804763,2.1565581922792973,0.21863366980288082
7.313890897,-1.7151247051013248,2.2589275202975885,0.2684331598295195
7.318645533,-1.7083371491157624,2.3544397959994243,0.3173824841060727
7.323400168,-1.6861822941783524,2.441501944336839,0.36521542750682434
7.328154804,-1.6476888085733885,2.518539768699744,0.4116920173377442
7.332909439,-1.592032147832833,2.5840185590324016,0.45660068944861454
7.337664074,-1.518551429701894,2.6364639406884542,0.499759808222337
7.34241871,-1.4267649314849609,2.67448268223307,0.5410185162546098
7.347173397,-1.316383929794103,2.6967831700438465,0.5802569044310106
