Time (s),Acceleration x (m/s^2),Acceleration y (m/s^2),Acceleration z (m/s^2)
10.00023073,10.0019989,-6.963113785,-1.112662554
10.00498563,10.10728264,-7.360322475,-1.100698471
10.00974052,10.2652092,-7.824530125,-1.172483087
10.01449536,10.49491978,-8.26241684,-1.13419795
10.01925026,10.72463131,-8.633303642,-0.9547362328
10.02400516,10.75813103,-8.930013657,-0.5694918036
10.02876005,10.66002464,-9.044869423,-0.06699903309
10.0335149,10.5355978,-8.92283535,0.3924229145
10.03826979,10.2723875,-8.66680336,0.6963114142
10.04302469,9.812965393,-8.293522835,0.760917604
10.04777958,9.188439369,-7.91306448,0.784845829
10.05253443,8.487341881,-7.501499176,0.8063812256
10.05728932,7.867600918,-7.109076023,0.7513462901
10.06204422,7.357929707,-6.740581512,0.6699903607
10.06679912,6.953542709,-6.343372822,0.4115654826
10.07155401,6.601797581,-6.061019897,-0.09810572863
10.07630886,6.24766016,-5.833701611,-0.6771687865
10.08106375,5.931807518,-5.697310925,-0.9044869542
10.08581865,5.680561066,-5.599205017,-0.756131947
10.09057354,5.541777134,-5.525027275,-0.1244267747
10.09532839,5.481956482,-5.520241737,0.70348984
10.10008328,5.419743061,-5.560919762,1.450050473
10.10483818,5.376672268,-5.694917679,1.837687731
10.10959307,5.352744102,-5.857629776,1.904686809
10.11434792,5.338387489,-6.089733601,1.792224169
10.11910281,5.402993679,-6.39601469,1.512263894
10.12385771,5.651846886,-6.752545357,1.16769743
10.1286126,6.068198204,-7.156932354,0.7633104324
10.13336745,6.673582554,-7.623532772,0.433100909
10.13812234,7.372286797,-8.137989998,0.3684946895
10.14287724,8.087740898,-8.662017822,0.6197410822
10.14763214,8.817551613,-9.245866776,1.026520967
10.15238703,9.480362892,-9.817750931,1.34237349
10.15714188,10.12642574,-10.40399265,1.495514154
10.16189677,10.72702408,-11.04048347,1.497906923
10.16665167,11.2941227,-11.65543938,1.636690736
10.17140656,11.69133186,-12.21057415,1.909472466
10.17616141,11.95214939,-12.62692547,2.227717876
10.1809163,11.99522018,-12.87817192,2.428714991
10.1856712,11.96411324,-12.90449238,2.459821701
10.19042609,11.86840057,-12.67238903,2.352144718
10.19518099,11.63629627,-12.22253799,2.285145521
10.19993583,11.24148083,-11.51186943,2.239681959
10.20469073,10.80838013,-10.6983099,2.132004976
10.20944563,10.45184898,-9.973284721,1.852044702
10.21420052,10.25324535,-9.399007797,1.593619823
10.21895537,10.18385315,-8.982656479,1.344766378
10.22371026,10.12164021,-8.623732567,1.186840057
10.22846516,10.1024971,-8.305487633,1.0863415
10.23322005,10.11924744,-8.00638485,1.071984529
10.2379749,10.18385315,-7.738388538,1.122233868
10.24272979,10.25803089,-7.515855789,1.239482164
10.24748469,10.27956581,-7.33639431,1.253839016
10.25223958,10.2221384,-7.164111137,1.143769264
10.25699448,10.052248,-7.010970116,0.8925228715
10.26174932,9.801001549,-6.948757172,0.4259224236
10.26650422,9.499505997,-6.953542709,-0.1579262912
10.27125912,9.25783062,-7.022934437,-0.7537391186
10.27601401,9.075976372,-7.171289444,-1.26341033
10.28076886,8.956335068,-7.4010005,-1.55054903
10.28552375,9.013762474,-7.65703249,-1.746760488
10.29027865,9.145368576,-7.948956966,-1.722832322
10.29503354,9.363115311,-8.231309891,-1.447657704
10.29978839,9.528220177,-8.420342445,-0.9619147182
10.30454328,9.585647583,-8.544769287,-0.3732803464
10.30929818,9.540184021,-8.578269005,0.1507478207
10.31405307,9.372686386,-8.532805443,0.4354937077
10.31880797,9.054440498,-8.394021988,0.5670989752
10.32356281,8.597412109,-8.221738815,0.5766702294
10.32831771,7.982456207,-8.001599312,0.5288137794
10.3330726,7.360322475,-7.800601959,0.4522434771
10.3378275,6.781259537,-7.601997375,0.4139583111
10.3425824,6.281159401,-7.465606689,0.4953143001
10.34733724,5.8983078,-7.4010005,0.5718846321
10.35209214,5.639883041,-7.465606689,0.6843472719
10.35684703,5.503491879,-7.635497093,0.8733802438
10.36160193,5.577669621,-7.987242222,1.196411371
10.36635677,5.907878876,-8.506484032,1.624726534
10.37111167,6.436692715,-9.05922699,2.0769701
10.37586656,6.896114826,-9.628718376,2.426322222
10.38062146,7.252645493,-10.16710377,2.715853691
10.38537636,7.365108013,-10.70070267,2.959921598
10.3901312,7.329215527,-11.09551907,3.031706333
10.39488609,7.061219692,-11.36830044,2.87856555
10.39964099,6.599404812,-11.40897846,2.457428932
10.40439589,5.893522263,-11.301301,1.952543259
10.40915073,5.084748268,-11.05962658,1.318445325
10.41390563,4.211368084,-10.72223854,0.6556333899
10.41866052,3.385843992,-10.3728857,-0.01196411345
10.42341542,2.663211584,-10.01396275,-0.5575276613
10.42817026,2.041077614,-9.597611427,-0.9690931439
10.43292516,1.574477315,-9.214759827,-1.141376376
10.43768005,1.51944232,-8.810373306,-1.057627559
10.44243495,2.038684845,-8.417949677,-0.6699903607
10.44718984,2.81395936,-7.99202776,-0.09810572863
10.45194469,3.639483213,-7.556533813,0.5718846321
10.45669958,4.532006264,-7.176074982,1.249053478
10.46145448,5.50109911,-6.910471916,1.892722726
10.46620938,6.620940208,-6.762116909,2.311466694
10.47096422,7.896314621,-6.74536705,2.431107759
10.47571912,9.363115311,-6.848258495,2.160718918
10.48047401,11.06919765,-7.01575613,1.43808639
10.48522891,12.77528,-7.216753006,0.5527420044
10.4899838,14.28515148,-7.398607731,-0.2560320199
10.49473865,15.30210114,-7.49910593,-0.8949156404
10.49949354,15.60359669,-7.530212879,-1.045663476
10.50424844,15.18006706,-7.52782011,-0.7202396393
10.50900333,13.94537067,-7.456035137,-0.05024927482
10.51375823,12.12682533,-7.293323517,0.7130611539
10.51851307,10.48295593,-7.133004189,1.418943882
10.52326797,9.305686951,-6.943971157,1.974078655
10.52802286,8.537590981,-6.788437843,2.261217356
10.53277776,8.102097511,-6.640082836,2.210968018
10.5375326,7.86281538,-6.501298904,1.823330879
10.5422875,7.697710514,-6.458228111,1.10309124
10.5470424,7.575676441,-6.393621922,0.2799602449
10.55179729,7.659425259,-6.345765591,-0.418743968
10.55655219,7.903493404,-6.269195557,-0.8757730722
10.56130703,8.33180809,-6.163911343,-0.9738788009
10.56606193,8.721838951,-6.123233318,-0.7513462901
10.57081682,9.013762474,-6.132804394,-0.3038884699
10.57557172,9.087940216,-6.300302029,0.2727817893
10.58032656,9.008976936,-6.577869415,0.7896314859
10.58508146,8.767302513,-6.977470875,1.052842021
10.58983636,8.465806961,-7.408178806,0.9451649189
10.59459125,8.145168304,-7.812565804,0.5216353536
10.59934609,7.836493969,-8.126026154,-0.1052841991
10.60410099,7.439285755,-8.394021988,-0.7800601721
10.60885589,6.970292568,-8.592626572,-1.330409408
10.61361078,6.544369698,-8.697910309,-1.708475351
10.61836568,6.242874146,-8.736195564,-1.718046665
10.62312052,6.053841114,-8.599804878,-1.469193101
10.62787542,5.936593056,-8.350951195,-1.031306505
10.63263031,5.876772404,-8.020741463,-0.5479564071
10.63738521,5.938985825,-7.678567886,-0.2321037948
10.64214011,6.116054535,-7.295716286,-0.1363908947
10.64689495,6.455835342,-6.884150982,-0.1483550072
10.65164984,6.896114826,-6.455835342,-0.2009970993
10.65640474,7.403393269,-6.005984783,-0.2297109663
10.66115964,7.802994728,-5.580062389,-0.2392822653
10.66591448,8.032705307,-5.302495003,-0.3732803464
10.67066938,8.085348129,-5.034498692,-0.5455635786
10.67542427,7.96331358,-4.850251675,-0.7417750359
10.68017917,7.805387497,-4.704289436,-0.9332008362
10.68493406,7.491927624,-4.613361835,-1.141376376
10.68968891,7.125825882,-4.551148891,-1.289731383
10.6944438,6.819544315,-4.445864677,-1.162911773
10.6991987,6.601797581,-4.369294167,-0.8638089895
10.70395359,6.448657036,-4.182653904,-0.4737788737
10.70870844,6.412764549,-4.034298897,-0.1244267747
10.71346333,6.427121639,-3.873979807,0.1220339537
10.71821823,6.379265308,-3.665804386,0.2919243574
10.72297313,6.355337143,-3.371487141,0.35174492
10.72772802,6.295516491,-3.055634499,0.2775674164
10.73248287,6.159125328,-2.742174864,0.04067798331
10.73723776,5.917450428,-2.459821701,-0.07896314561
10.74199266,5.603990555,-2.280359983,0.1363908947
10.74674755,5.163711071,-2.148754835,0.837487936
10.7515024,4.788038254,-2.096112728,1.931007862
10.75625729,4.512863636,-2.026720762,2.907279491
10.76101219,4.443471432,-1.931007862,3.395415306
10.76576708,4.565505505,-1.80658114,3.247060299
10.77052198,4.878965378,-1.64626193,2.500499725
10.77527682,5.398207664,-1.512263894,1.485942841
10.78003172,5.979663849,-1.428515077,0.5838487148
10.78478662,6.527620316,-1.562513232,-0.0239282269
10.78954151,7.025327206,-1.938186288,-0.2536391914
10.79429641,6.999006271,-2.507678032,-0.2153540403
10.79905125,6.31226635,-3.203989506,-0.3756731451
10.80380615,5.429314613,-3.850051641,-0.9044869542
10.80856104,4.620540619,-4.314259052,-1.354337573
10.81331594,4.07736969,-4.479363918,-1.450050473
10.81807078,3.840480328,-4.376472473,-1.256231904
10.82282568,3.921836376,-3.993621111,-1.127019525
10.82758057,4.070191383,-3.483949661,-1.205982566
10.83233547,4.199403763,-2.952743053,-1.289731383
10.83709031,4.340580463,-2.464607239,-1.143769264
10.84184521,4.460221291,-2.06261301,-0.7704889178
10.8466001,4.582255363,-1.744367719,-0.5383850932
10.851355,4.677968502,-1.600798368,-0.6388836503
10.8561099,4.725824833,-1.603191137,-1.002592683
10.86086474,4.689932346,-1.789831281,-1.332802176
10.86561964,4.55354166,-2.086541414,-1.332802176
10.87037453,4.29750967,-2.36650157,-1.11984098
10.87512943,4.043870449,-2.543570518,-0.9667003751
10.87988432,3.728017569,-2.62253356,-0.9164510965
10.88463917,3.481556892,-2.634497643,-1.050449133
10.88939406,3.366701365,-2.612962246,-1.138983607
10.89414896,3.450450182,-2.610569477,-1.083948612
10.89890386,3.687339783,-2.620140791,-0.9882357717
10.90365875,4.15633297,-2.632104874,-0.8997012973
10.90841359,4.673182487,-2.615355253,-0.8039883971
10.91316849,5.120640278,-2.548356056,-0.7178468108
10.91792339,5.505885124,-2.459821701,-0.7728816867
10.92267823,5.819344521,-2.416750908,-0.9236295223
10.92743313,5.996413708,-2.421536446,-1.076770186
10.93218802,6.061019897,-2.490928411,-1.143769264
10.93694292,6.132804394,-2.632104874,-1.153340459
10.94169776,6.262016773,-2.81395936,-1.229910851
10.94645266,6.482156754,-3.031706333,-1.47158587
10.95120755,6.673582554,-3.270988464,-1.612762451
10.95596245,6.876972198,-3.510270834,-1.526620865
10.96071734,7.00139904,-3.763910055,-1.347159147
10.96547219,6.994220734,-4.072584152,-1.117448211
10.97022708,6.857829571,-4.36211586,-0.94277215
10.97498198,6.640082836,-4.711467743,-0.8542376757
10.97973688,6.443871498,-5.032105923,-0.6484549642
10.98449177,6.238088608,-5.326423168,-0.3684946895
10.98924662,6.092126369,-5.572884083,-0.1220339537
10.99400151,6.087340832,-5.728417397,0.04546362907
10.99875641,6.197410583,-5.903093338,0.1651047617
11.0035113,6.43908596,-6.022734642,0.1387837082
11.00826615,6.742974281,-6.104090691,-0.05024927482
11.01302104,7.037291527,-6.214160442,-0.3230310678
11.01777594,7.226324558,-6.321837425,-0.5742774606
11.02253083,7.453642368,-6.400800705,-0.7896314859
11.02728573,7.635497093,-6.486942291,-0.8183453679
11.03204057,7.807780266,-6.534798622,-0.7345965505
11.03679547,7.946564198,-6.592226505,-0.5982056856
11.04155036,8.0757761,-6.623332977,-0.5120640397
11.04630526,8.178668022,-6.690331936,-0.4163511395
11.05106011,8.26241684,-6.805187702,-0.2656033039
11.055815,8.413164139,-6.92243576,0.02632104978
11.0605699,8.681160927,-7.042077065,0.337387979
11.06532479,8.886942863,-7.166503906,0.4809573591
11.07007964,9.066405296,-7.267002583,0.4642075896
11.07483453,9.183652878,-7.350750923,0.2536391914
11.07958943,9.243474007,-7.405786037,0.03589234129
11.08434432,9.248259544,-7.51346302,-0.04785645381
11.08909922,9.255437851,-7.597211838,-0.06460621208
11.09385406,9.164510727,-7.645068169,-0.004785645287
11.09860896,9.052047729,-7.673782349,0.1507478207
11.10336386,8.891729355,-7.683353424,0.4211367965
11.10811875,8.657232285,-7.652246952,0.8063812256
11.11287359,8.432307243,-7.635497093,1.170090318
11.11762849,8.224131584,-7.676175117,1.316052437
11.12238339,8.020741463,-7.726424217,1.203589797
11.12713828,7.917850018,-7.810173035,0.9667003751
11.13189318,7.843672752,-7.936992645,0.7704889178
11.13664802,7.759923935,-8.066205025,0.5910272002
11.14140292,7.716853142,-8.264809608,0.4594219327
11.14615781,7.70728159,-8.494520187,0.3708875179
11.15091271,7.771887779,-8.731410027,0.3828516304
11.15566755,7.831708431,-8.989834785,0.5479564071
11.16042245,7.860422611,-9.198010445,0.7345965505
11.16517734,7.831708431,-9.444471359,0.8877372146
11.16993224,7.719245911,-9.652647018,0.9379864931
11.17468714,7.556533813,-9.839286804,0.9762716293
11.17944198,7.319644451,-9.942177773,0.9786644578
11.18419688,7.197610378,-10.00439167,0.9810572863
11.18895177,6.991827965,-9.949356079,0.9475577474
11.19370667,6.88893652,-9.853643417,0.9092726111
11.19846151,6.908079147,-9.69093132,0.8518448472
11.20321641,7.056434155,-9.470791817,0.8350951076
11.2079713,7.41535759,-9.152546883,0.8781659007
11.2127262,7.829315662,-8.781659126,0.8949156404
11.21748104,8.293522835,-8.374878883,0.8757730722
11.22223594,8.853444099,-7.96331358,0.7896314859
11.22699083,9.367900848,-7.666603565,0.7800601721
11.23174573,9.903892517,-7.439285755,0.9140582681
11.23650057,10.50688457,-7.343572617,1.227517962
11.24125547,11.1433754,-7.372286797,1.655833244
11.24601036,11.76072311,-7.530212879,1.990828395
11.25076526,12.26800156,-7.802994728,2.081755638
11.2555201,12.59581852,-8.209774017,1.916650891
11.260275,12.78006554,-8.676374435,1.782652855
11.2650299,12.78006554,-9.20758152,1.782652855
11.26978479,12.65085316,-9.734002113,1.976471543
11.27453969,12.55753326,-10.17667484,2.258824587
11.27929453,12.42353535,-10.51645565,2.524427891
11.28404943,12.26800156,-10.74138069,2.562713146
11.28880432,12.10768223,-10.83470058,2.361716032
11.29355922,11.93779182,-10.75813103,1.892722726
11.29831406,11.74397373,-10.54995537,1.258624673
11.30306896,11.53579807,-10.3154583,0.6963114142
11.30782386,11.34676456,-10.01874828,0.2895315289
11.31257875,11.24626637,-9.734002113,0.04307080805
11.31733359,11.18405342,-9.420542717,-0.05264209956
11.32208849,11.11226845,-9.114261627,-0.08135596663
11.32684339,10.98784161,-8.798408508,-0.04546362907
11.33159828,10.83948612,-8.492127419,0.02871387079
11.33635318,10.59541893,-8.20498848,0.06460621208
11.34110802,10.32981491,-7.944170952,0.09810572863
11.34586292,10.10728264,-7.716853142,0.0933200866
11.35061781,9.784252167,-7.534998417,0.1076770201
11.35537271,9.343972206,-7.350750923,0.1722832322
11.3601276,8.729017258,-7.195217609,0.2703889608
11.36488245,7.920242786,-7.077969551,0.4283152521
11.36963734,7.089933395,-6.970292568,0.5192425251
11.37439224,6.259624004,-6.92243576,0.5479564071
11.37914708,5.477170944,-6.963113785,0.4498506486
11.38390198,4.737788677,-7.061219692,0.3828516304
11.38865688,4.031906128,-7.219145775,0.3589234054
11.39341177,3.366701365,-7.417750359,0.4594219327
11.39816667,2.79720974,-7.678567886,0.650847733
11.40292151,2.383251429,-7.996813297,0.8614161611
11.40767641,2.053041935,-8.346165657,1.024128079
11.4124313,1.828116536,-8.71705246,1.170090318
11.4171862,1.758724689,-9.092725754,1.136590719
11.42194104,1.911865234,-9.497113228,0.9212366939
11.42669594,2.215753794,-9.920642853,0.5479564071
11.43145083,2.62253356,-10.28674412,0.2057827413
11.43620573,3.14895463,-10.57388306,0.06460621208
11.44096057,3.768695593,-10.77966595,0.3326023519
11.44571547,4.424329281,-10.75813103,0.8590233326
11.45047037,5.034498692,-10.58106136,1.40697968
11.45522526,5.525027275,-10.31306553,1.813759565
11.45998011,5.905486107,-9.992427826,2.002792597
11.464735,6.214160442,-9.633503914,2.031506538
11.4694899,6.460621357,-9.317651749,2.029113531
11.47424479,6.754938126,-9.025727272,2.14157629
11.47899964,7.061219692,-8.77448082,2.325823545
11.48375453,7.377072334,-8.511270523,2.49332118
11.48850943,7.724031448,-8.286344528,2.589034081
11.49326432,8.106883049,-8.047062874,2.586641312
11.49801917,8.585447311,-7.807780266,2.46221447
11.50277406,9.023334503,-7.558926582,2.325823545
11.50752896,9.494720459,-7.367500782,2.175075769
11.51228386,9.999606133,-7.180860519,1.916650891
11.5170387,10.48056316,-7.056434155,1.612762451
11.52179359,11.02373409,-6.975078106,1.318445325
11.52654849,11.52383423,-6.929614544,1.031306505
11.53130339,11.94736385,-6.946363926,0.6891329288
11.53605823,12.23928738,-6.963113785,0.2943171859
11.54081313,12.35892868,-6.982256413,-0.04067798331
11.54556802,12.25125217,-7.034898758,-0.2991028428
11.55032292,11.92822075,-7.044469833,-0.4307080805
11.55507776,11.48794174,-7.003791809,-0.3397808075
11.55983266,10.9615202,-6.972685337,-0.1316052526
11.56458755,10.46859932,-6.939185619,0.2703889608
11.56934245,9.951749802,-6.996613503,0.6436693072
11.57409729,9.468399048,-7.106683254,0.9834501147
11.57885219,9.054440498,-7.178467751,1.363908887
11.58360708,8.702695847,-7.293323517,1.624726534
11.58836198,8.291130066,-7.439285755,1.785045743
11.59311682,7.781459332,-7.683353424,1.897508383
11.59787172,7.195217609,-7.893921852,1.95015049
11.60262662,6.577869415,-8.042277336,1.852044702
11.60738151,6.20458889,-8.157132149,1.622333765
11.61213636,6.123233318,-8.209774017,1.234696507
11.61689125,6.252445698,-8.216953278,0.8422735929
11.62164615,6.518048763,-8.126026154,0.3852444589
11.62640104,6.908079147,-8.015955925,-0.1292124242
11.63115589,7.214360237,-7.886743546,-0.4522434771
11.63591078,7.585247993,-7.728816986,-0.6747759581
11.64066568,7.956135273,-7.60678339,-0.7680960894
11.64542057,8.283951759,-7.475177765,-0.7441678643
11.65017542,8.477770805,-7.30768013,-0.6699903607
11.65493031,8.523234367,-7.180860519,-0.5958128572
11.65968521,8.477770805,-7.046862602,-0.4378865361
11.6644401,8.398807526,-6.932007313,-0.3230310678
11.66919495,8.257631302,-6.927221775,-0.4067798555
11.67394984,8.042277336,-6.95114994,-0.6699903607
11.67870474,7.747959614,-7.010970116,-1.012163997
11.68345964,7.422535896,-7.049255371,-1.194018483
11.68821448,7.135396957,-7.068397999,-0.9954141974
11.69296938,6.955935478,-7.044469833,-0.5718846321
11.69772427,6.896114826,-6.939185619,-0.2249253243
11.70247917,6.750152588,-6.833901405,-0.04307080805
11.70723401,6.563512325,-6.687939167,-0.1220339537
11.71198891,6.467799664,-6.518048763,-0.4354937077
11.7167438,6.407979012,-6.228517532,-0.6915257573
11.7214987,6.381658077,-5.788238049,-0.7106683254
11.72625354,6.496513367,-5.146961689,-0.366101861
11.73100844,6.714260101,-4.445864677,0.04785645381
11.73576333,6.783652306,-3.766302824,0.4594219327
11.74051823,6.656832695,-3.170490026,0.7800601721
11.74527307,6.302694798,-2.689532757,0.9260223508
11.75002797,5.881557941,-2.335394859,0.6819544435
11.75478287,5.469992638,-2.033899307,0.35174492
11.75953771,5.187639713,-1.816152334,0.06221338734
11.76429261,5.108676434,-1.648654819,-0.04785645381
11.7690475,5.132604599,-1.481157184,-0.06699903309
11.7738024,5.067998409,-1.411765337,-0.02871387079
11.77855724,4.888536453,-1.383051515,0.337387979
11.78331214,4.692325115,-1.409372568,1.098305583
11.78806703,4.366901398,-1.433300734,2.139183521
11.79282193,3.993621111,-1.478764415,2.926422119
11.79757677,3.701696634,-1.543370605,2.998206854
11.80233167,3.553341627,-1.610369682,2.390429735
11.80708656,3.550948858,-1.658226132,1.447657704
11.81184141,3.737588882,-1.725225091,0.4953143001
11.8165963,3.878765583,-1.954936147,-0.7369893789
11.8213512,3.854837179,-2.172683001,-1.325623751
11.82610609,3.83569479,-2.476571321,-1.194018483
11.83086094,3.761517286,-2.70149684,-0.7010970116
11.83561583,3.639483213,-2.766103029,-0.4426721931
11.84037073,3.543770313,-2.634497643,-0.5431707501
11.84512563,3.471985579,-2.416750908,-0.9020941257
11.84988047,3.517449379,-2.177468538,-1.268195987
11.85463536,3.716053486,-1.983649969,-1.490728498
11.85939026,3.907479286,-1.921436548,-1.483550072
11.8641451,4.07736969,-1.9812572,-1.39022994
11.8689,4.063013077,-2.122433662,-1.162911773
11.8736549,3.907479286,-2.30189538,-0.7704889178
11.87840979,3.94815731,-2.402393818,-0.2608176768
11.88316464,4.252045631,-2.447857618,0.0765703246
11.88791953,4.898108006,-2.402393818,0.02153540403
11.89267443,5.886343479,-2.30189538,-0.500099957
11.89742932,6.908079147,-2.239681959,-1.170090318
11.90218417,7.788637638,-2.292324066,-1.787438512
