Time (s),Acceleration x (m/s^2),Acceleration y (m/s^2),Acceleration z (m/s^2)
6.003671396,-0.3007008178460388,0.08284552164628953,-1.1362254793512685
6.00844775,-0.2570118578292576,-0.16692464685611785,-1.153309599808676
6.013210771,-0.21030922110113257,-0.41557037323634566,-1.1705750547206535
6.018000458,-0.1605190640705122,-0.6610749731343155,-1.1883477506792703
6.022776812,-0.10758245121881434,-0.9015136940509215,-1.2068929013806549
6.027539833,-0.05145848451185699,-1.1350813200139522,-1.226406103104335
6.032329521,0.007872593283152996,-1.3601175040315094,-1.2470057822956815
6.037105875,0.07040638605518966,-1.5751293615582573,-1.2687271996523781
6.041868896,0.13611148312854582,-1.7788109121757445,-1.2915181711138368
6.046658583,0.20492680444344133,-1.970059019779405,-1.3152366379558469
6.051434885,0.27675920092246786,-2.147985552017829,-1.3396501853366216
6.056197958,0.3514813522550278,-2.311925555414389,-1.3644375708845213
6.060987594,0.4289299982069165,-2.4614413213768485,-1.3891922825784657
6.065763948,0.5089045345849388,-2.5963222985707204,-1.4134280993760013
6.070527021,0.5911660018326941,-2.71658088801823,-1.4365865805151503
6.075316656,0.6754364932653547,-2.8224442380286,-1.4580463618772375
6.08009301,0.7613990107877483,-2.9143422352485016,-1.4771340916547122
6.084869364,0.8486977974106991,-2.992891963553135,-1.4931367941713376
6.089645719,0.9369391765563617,-3.0588789717252256,-1.5053154116851586
6.094422073,1.0256929269276434,-3.1132357516638582,-1.5129192412244794
6.099185094,1.1144942180534607,-3.15701787944079,-1.5152009586849158
6.103974781,1.202846125385136,-3.1913783106391227,-1.5114319067664237
6.108751135,1.2902227351169187,-3.217540348434799,-1.500917317350267
6.113514156,1.376072837952206,-3.236769817720961,-1.4830111424067716
6.118303791,1.4598241981790896,-3.2503469815096007,-1.4571301798072795
6.123080146,1.5408883701789204,-3.259538727396878,-1.4227672005868621
6.127843219,1.618666019537968,-3.2655715327650334,-1.3795028112743253
6.132632854,1.6925526909546558,-3.2696056885326192,-1.327015817794721
6.137409208,1.7619449507019476,-3.272711223781187,-1.265091894980261
6.142172281,1.8262468178080056,-3.275845928786355,-1.1936304066040926
6.146961916,1.8848763852717556,-3.279835823272874,-1.1126492635962613
6.151738271,1.9372725201983203,-3.2853583614852626,-1.0222877509759694
6.156501291,1.9829015195656565,-3.292928607188265,-0.922807295096963
6.161290979,2.021263586984794,-3.302888551185647,-0.8145901800362474
6.166067333,2.0518989869045314,-3.3153996826850456,-0.6981362534167113
6.170830354,2.0743937286841456,-3.330438865348975,-0.5740576863593736
6.175619989,2.0883846363395224,-3.3477975106826756,-0.4430718705159759
6.180396344,2.093563672240695,-3.3670839868472027,-0.3059925516158292
6.185159416,2.089681404842664,-3.3877291512233967,-0.16371932009658
6.189949052,2.0765495404405763,-3.4089948512086004,-0.017225609676078245
6.194725406,2.054042474636689,-3.429985200677804,0.13245460607880785
6.199488427,2.022097857819857,-3.4496604095647543,0.2842411853952277
6.204278114,1.9807162078447063,-3.4668529206974656,0.43702298226344255
6.209054469,1.9299596404475503,-3.480285590409414,0.5896734924342113
6.213817489,1.869949822173242,-3.4885916362996525,0.7410666489150752
6.218607177,1.8008652790505606,-3.4903360655150477,0.8900924263306388
6.223383531,1.7229382135189775,-3.484038288891212,1.0356719189950785
6.228146552,1.6364509903922004,-3.468195619310282,1.1767715748682002
6.232936187,1.541732451321843,-3.441307346209498,1.3124162950642821
6.237712541,1.4391542093596754,-3.4018990723030456,1.4417011448495591
6.242475614,1.3291270629159553,-3.3485469936960435,1.5638014653758927
6.24726525,1.212097651946826,-3.2799018013119685,1.6779812236375817
6.252041604,1.0885454580795755,-3.1947118806458983,1.7835994894513205
6.256804625,0.9589802245538135,-3.091845489220255,1.8801149814270235
6.261594312,0.8239398421886063,-2.9703115979547583,1.9670886778787111
6.266370666,0.6839887158523019,-2.8292790952068394,2.0441845419088263
6.271147021,0.5397165944105381,-2.6680940713712773,2.111168460346019
6.275923375,0.39173781797092333,-2.48629492790426,2.1679055413438477
6.280699677,0.24069091078278124,-2.2836250870828136,2.2143559528196066
6.28546275,0.08723842691977657,-2.0600431168584445,2.2505695115034112
6.290252385,-0.06793306107894072,-1.8157301276168625,2.2766792490035277
6.295028739,-0.22411295309344179,-1.5510943431458035,2.2928941870456354
6.299791812,-0.38056672243588985,-1.2667727952793624,2.2994915501210347
6.304581448,-0.5365362608694515,-0.9636301393423806,2.2968086318211314
6.309357802,-0.691240600028124,-0.6427546347087052,2.28523451260501
6.314120823,-0.8438771356856932,-0.30545138072631567,2.2652018030751275
6.31891051,-0.993623470490746,0.04676705775272425,2.237178559878025
6.323686864,-1.139639973807422,0.4121924596490443,2.2016604931644954
6.328449885,-1.281073133675051,0.7889349782510379,2.1591635566144323
6.333239521,-1.4170597472468678,1.1749391464066117,2.110216984069419
6.338015875,-1.54673196529201,1.5680015827106912,2.0553568115682976
6.342778948,-1.6692231757577505,1.9657901063365204,1.995119901484625
6.347568583,-1.783674682035881,2.3658639587987205,1.9300384682712448
6.352344937,-1.8892431039675255,2.7656948314809573,1.8606350941206982
6.35710801,-1.9851084045782752,3.162688408251991,1.7874182174722015
6.361897646,-2.0704824242181132,3.5542061526769526,1.7108780764584166
6.366674,-2.1446177870976433,3.9375870982772274,1.6314830913917093
6.371437021,-2.2068170335480253,4.310169435986248,1.5496766736984082
6.376226708,-2.2564418247233746,4.669311732469466,1.4658744521196874
6.381003062,-2.292922064554638,5.01241365300218,1.3804619097049151
6.385766083,-2.3157647856593018,5.336936099838423,1.2937924268103775
6.390555719,-2.3245626506785104,5.640420708795278,1.2061857260156816
6.395332073,-2.319001927792703,5.9205086717208335,1.117926714617637
6.400108427,-2.298869808868671,6.174958870405771,1.029264719137873
6.404884781,-2.264060950224256,6.4016653185134205,0.9404131043210232
6.409661135,-2.214583128085122,6.598673912123053,0.8515492670672905
6.414437489,-2.1505619121449615,6.764198486225268,0.7628149944879173
6.419213844,-2.0722442709587807,6.896636164383852,0.6743171753913777
6.423990198,-1.9800010333029052,6.994581973547138,0.5861288560461679
6.428766552,-1.8743281414714428,7.056842678144673,0.4982906335791673
6.433542906,-1.7558466460424242,7.082449768896847,0.41081238322983377
6.43831926,-1.6253014062668567,7.07067152268059,0.3236753183219063
6.443095614,-1.4835584751820186,7.021024030354737,0.23683438380049254
6.447871916,-1.3316011634803886,6.933281070033858,0.15022098520497007
6.452648271,-1.1705247909420642,6.807482684679093,0.06374605482398252
6.457424625,-1.0015301486715609,6.643942305881857,-0.022696544520757977
6.462200979,-0.825915709138623,6.44325225109794,-0.10922627995680902
6.466977333,-0.6450686337186919,6.206287410057612,-0.19597187837704258
6.471740354,-0.46045463876180437,5.9342069283567636,-0.28306693452019094
6.476530041,-0.27360679107950453,5.628453693009933,-0.37064521083933494
6.481306396,-0.08611331225247175,5.290751426599849,-0.4588356482230593
6.486069416,0.10039552132408108,4.923099204105615,-0.5477571134230441
6.490859104,0.2842612887616466,4.527763220072037,-0.6375129173089211
6.495635458,0.4638120446401688,4.1072656540345625,-0.7281851478799105
6.500398479,0.6373775409993313,3.6643705094296437,-0.8198288732492153
6.505188114,0.8033049367316126,3.202066335724178,-0.9124662825098483
6.509964469,0.9599748725632334,2.7235457850011384,-1.0060808464493964
6.514727541,1.105817782525181,2.2321820021844028,-1.1006115954074798
6.519517177,1.2393303057319907,1.7315019015508033,-1.1959476279000747
6.524293531,1.359091655889908,1.2251564400610626,-1.2919229804981336
6.529056552,1.463779800776275,0.7168880593101263,-1.388312006093421
6.533846239,1.5521873003828386,0.21049553164210094,-1.4848254228719713
6.538622594,1.6232366506497904,-0.29020348869914336,-1.581107208101553
6.543385614,1.6759949794978304,-0.7814118425727452,-1.6767325166789924
6.548175302,1.7096879425565612,-1.25939373879236,-1.7712068016512323
6.552951656,1.723712666707498,-1.720516626661178,-1.8639663006174538
6.557714677,1.717649589401898,-2.161293511149996,-1.9543800272373584
6.562504312,1.6912730398925446,-2.5784250973034157,-2.041753371746152
6.567280666,1.6445604044462354,-2.968841100302261,-2.125333370752246
6.572043739,1.5776997110387825,-3.3297400157514216,-2.2043156582793326
6.576833375,1.4910954603022994,-3.658626613805388,-2.2778530608273018
6.581609729,1.3853725194802429,-3.953346403754282,-2.3450657517070796
6.58637275,1.2613778860015505,-4.212116315796362,-2.4050528347938203
6.591162437,1.1201801183432887,-4.433550866369186,-2.4569051854786075
6.595938791,0.9630662259301211,-4.616683113721988,-2.499719338734813
6.600701812,0.7915358093232948,-4.76097977139628,-2.532612183650597
6.605491448,0.6072922494551825,-4.866349928931358,-2.5547362018998094
6.610267802,0.41223076261630426,-4.933146931999247,-2.56529497299914
6.615030875,0.20842316889700213,-4.962163098670993,-2.5635586591067208
6.61982051,-0.0019007312853447172,-4.95461709363064,-2.54887917515732
6.624596864,-0.21637521278730326,-4.912133945235536,-2.5207047471966466
6.629359885,-0.43252407009030736,-4.836717867483283,-2.4785935649440556
6.634149573,-0.6477893074072701,-4.730718235362651,-2.4222262453344694
6.638925927,-0.8595628200551781,-4.596789251731489,-2.351416841913172
6.643688948,-1.0652206942752893,-4.437844028973182,-2.2661221591551577
6.648478583,-1.2621596338000813,-4.257003979529655,-2.1664491597054254
6.653254937,-1.4478349099103336,-4.057544555657383,-2.0526602853800124
6.65801801,-1.6197991359845403,-3.842838491606409,-1.9251765490810204
6.662807646,-1.775741094804638,-3.6162977752662,-1.7845782943237762
6.667584,-1.913523801563343,-3.3813156090874474,-1.6316035617380185
6.672347021,-2.031220968915867,-3.141209612693242,-1.4671440471793198
6.677136708,-2.1271510513736707,-2.899167475019239,-1.2922386824372154
6.681913062,-2.199908082316293,-2.6581961861655627,-1.1080649145008754
6.686676083,-2.248388574796441,-2.421075872932311,-0.9159278004875665
6.691465719,-2.2718138338175153,-2.1903191319543964,-0.7172470711221208
6.696242073,-2.269747119577751,-1.9681366053328353,-0.5135423457433703
6.701005146,-2.2421052052728387,-1.7564093807541188,-0.30641670672673843
6.705794781,-2.1891639867003447,-1.5566686265005096,-0.09753886178574067
6.710571135,-2.1115579214969427,-1.370082696581322,0.1113758603997359
6.715334208,-2.0102732007342063,-1.1974517671212668,0.31858542186614985
6.720123844,-1.8866346822776703,-1.0392098961815834,0.5223416238515872
6.724900198,-1.7422867416210313,-0.8954342389183214,0.7209110130804155
6.729663219,-1.5791683201506264,-0.7658610016359834,0.9125958611152715
6.734452906,-1.3994825714053856,-0.6499075848208804,1.0957549294744198
6.73922926,-1.2056616208687754,-0.5467002492229167,1.2688237343783153
6.743992281,-1.0003270616250985,-0.4551065426851313,1.430334030377435
6.748781916,-0.7862469043227424,-0.3737716504477893,1.5789322418398988
6.753558271,-0.5662897833054701,-0.3011577792439157,1.7133965850281083
6.758321344,-0.3433772897742548,-0.23558565605650283,1.8326526406975001
6.763110979,-0.12043535541114407,-0.17527721553661563,1.9357871572074676
6.767887333,0.09965435639164898,-0.11839856479020086,2.022059886589092
6.772650354,0.3141020819462232,-0.06310234916150965,2.090913280654834
6.777440041,0.5202556514146643,-0.0075686961628180375,2.141979901108512
6.782216396,0.7156433183568668,0.04995601505587529,2.1750874269650233
6.786979416,0.8980128523694964,0.11112322659973965,2.190261174721283
6.791769104,1.0653660993960168,0.1774496885348564,2.18772408173194
6.796545406,1.2159883120435426,0.2502888257557951,2.167894140686741
6.801308479,1.3484716689074552,0.3308063409512133,2.1313793117421027
6.806098114,1.461732534376019,0.41996029730611995,2.0789699769267425
6.810874469,1.5550221547853564,0.518485813804736,2.011629037161837
6.815637541,1.6279306390716224,0.6268844000090452,1.9304797845362949
6.820427177,1.6803842283249746,0.7454178588960729,1.8367917111624046
6.825203531,1.7126360150030095,0.8741065980751878,1.7319644414320028
6.829966552,1.7252504248039071,1.0127321131508693,1.617509997430064
6.834756239,1.719081917693788,1.1608433432771572,1.4950336280923728
6.839532541,1.6952484945372002,1.3177665488086014,1.3662134513911133
6.844295614,1.6551007077530426,1.4826183247612172,1.2327791747931993
6.84908525,1.600186964807533,1.6543213414225735,1.0964901714479272
6.853861604,1.532215979769617,1.8316223940790561,0.9591131970010294
6.858624677,1.4530172696319217,2.0131123459128397,0.8224000340559035
6.863414312,1.364500609080569,2.197247559564283,0.6880653483556723
6.868190666,1.268615351401647,2.382372431390061,0.5577650337023377
6.872953687,1.1673104963810441,2.5667426659797568,0.4330753126779418
6.877743375,1.0624963407389865,2.7485489552198206,0.3154728483530608
6.882519729,0.9560084851458964,2.9259407545604046,0.2063161089951421
6.88728275,0.8495748962593523,3.097049877882103,0.1068282138385185
6.892072385,0.7447866341906971,3.2600136606201153,0.01808147338552483
6.896848739,0.6430727568115959,3.4129974680736734,-0.05901617830683537
6.901611812,0.5456798041081126,3.5542163516751466,-0.12373268067149015
6.906401448,0.4536561509231093,3.6819556799613076,-0.17552111659479513
6.911177802,0.36784139812479083,3.79459059281882,-0.21402662430276562
6.915954156,0.2888608539178873,3.8906041473579367,-0.23909084775300668
6.92073051,0.2171250419214011,3.968604041796959,-0.25075385086977603
6.925506864,0.15283406376033443,4.027337820245072,-0.24925345024306098
6.930269885,0.09598654388426896,4.06570647627463,-0.2350219505143878
6.935059573,0.04639279516336112,4.082776386566532,-0.20868029667319993
6.939835875,0.0036917667193048015,4.077789517705641,-0.1710296880793729
6.944598948,-0.032628729341922416,4.050171859725653,-0.12304073052964395
6.949388583,-0.06320906864728412,3.9995400497800784,-0.06584023560968337
6.954164937,-0.08879274073797466,3.9257061586154873,-0.0006958114264096022
6.958927958,-0.11019977822762637,3.828680620984151,0.07100157442085334
6.963717646,-0.12829933179745948,3.708673298099932,0.14775684123672878
6.968494,-0.14398203343632301,3.5660926656039167,0.22799159663635546
6.973270354,-0.1581327741724255,3.401543125007157,0.3100662069423312
6.978046708,-0.1716044925125805,3.2158204413092086,0.3923028251750583
6.982823062,-0.18519352851533769,3.0099053153612214,0.47300904687364576
6.987586083,-0.19961704810374517,2.784955107126647,0.5505018524280718
6.992375719,-0.2154929840610867,2.5422937356465587,0.6231314894606702
6.997152073,-0.2333228747764283,2.28339979364011,0.6893049499971485
7.001915146,-0.2534779104427873,2.0098929298427852,0.7475087048697389
7.006704781,-0.2761884212809157,1.7235185709041474,0.7963303718788864
7.011481135,-0.3015369658388269,1.4261310769786584,0.8344790140269002
7.016257489,-0.3294551010863398,1.1196754505823443,0.8608037885596043
7.021033844,-0.3597238407020376,0.8061677460950367,0.8743106955358462
7.025810198,-0.39197773433739197,0.48767435659527797,0.8741772053705161
7.0305865,-0.425712429689238,0.16629038457121575,0.8597645776685214
7.035362854,-0.46029551197559576,-0.15588266761273004,0.8306277180909626
7.040139208,-0.4949803528529366,-0.4767596239451231,0.7865224552607719
7.044902281,-0.5289226438252083,-0.7942944892715176,0.7274101551231635
7.049691916,-0.5611992387161907,-1.106503122606146,0.6534596252514068
7.054468271,-0.5908288867906243,-1.4114854034903124,0.5650462961771018
7.059231291,-0.6167944035058124,-1.7074465549441713,0.4627487010106639
7.064020979,-0.6380658003976685,-1.9927172822445947,0.3473423085212422
7.068797333,-0.6536238800024727,-2.265772389442112,0.21979079840515942
7.073560354,-0.6624837968985902,-2.5252475455276557,0.08123490030545856
7.078349989,-0.6637180928629514,-2.7699538894788067,-0.0670210505127407
7.083126344,-0.6564787333101111,-2.9988901878853103,-0.22352465916261047
7.087889416,-0.6400177032692679,-3.2112522903276313,-0.38669291207335804
7.092679052,-0.6137057627336148,-3.4064396660881187,-0.5548312854327733
7.097455406,-0.5770490110491723,-3.584058850980996,-0.7261542773660048
7.102218427,-0.5297029656229326,-3.7439236847573936,-0.8988071075742379
7.107008114,-0.47148391935900547,-3.8860522770709127,-1.0708883188221625
7.111784469,-0.40237740181997267,-4.010660702405108,-1.2404730078823896
7.116547489,-0.3225436291259814,-4.118153490144051,-1.4056364086574893
7.121337125,-0.23231988513246474,-4.209111043005548,-1.5644775465106997
7.126113479,-0.1322198300209458,-4.284274182932794,-1.7151426798575309
7.130876552,-0.02292978135677936,-4.344526085928739,-1.8558482428032872
7.135666187,0.0946979431199241,-4.3908719242653875,-1.9849030015972458
7.140442541,0.21965449166764203,-4.42441658442091,-2.1007291388364324
7.145205562,0.35078658762550813,-4.446340870585343,-2.201881983866898
7.14999525,0.48681108089340497,-4.45787663532011,-2.287068117058395
7.154771604,0.6263317083817642,-4.460281299899452,-2.355161590843484
7.159534625,0.7678577983172153,-4.4548122364382445,-2.405218032299026
7.16432426,0.9098246229767818,-4.442701482114918,-2.4364864204136207
7.169100614,1.05061507588114,-4.425131243074552,-2.448418365209254
7.173863687,1.1885823232358141,-4.403210622727072,-2.4406747545782457
7.178653323,1.3220730561660259,-4.3779539771859275,-2.413129676991756
7.183429677,1.4494509510645777,-4.35026126076293,-2.365871572656997
7.188192698,1.5691199316850142,-4.320900678135879,-2.299201609944577
7.192982385,1.6795468205476407,-4.290493908588008,-2.213629324707442
7.197758739,1.7792829711905893,-4.259504113276918,-2.109865593863353
7.20252176,1.8669844889814737,-4.2282268805579335,-1.9888130393241583
7.207311396,1.9414306777931611,-4.196784208604943,-1.8515539760852406
7.21208775,2.00154039224682,-4.165121570462496,-1.6993360353946245
7.216850823,2.0463860279405677,-4.1330080556022555,-1.5335556178672503
7.221640458,2.075204941553259,-4.100039535036181,-1.3557393665541695
7.226416812,2.087408155505451,-4.065644754386856,-1.167523895474144
7.231179833,2.0825862654596357,-4.029094220876778,-0.9706340596416736
7.235969521,2.060512532119327,-3.9895117159877853,-0.7668601011868307
7.240745875,2.0211432014618764,-3.9458882362724608,-0.558034047608059
7.245508896,1.9646151595735604,-3.8970981417477755,-0.34600577076336786
7.250298531,1.8912410878319657,-3.8419172755142816,-0.13261913856738128
7.255074885,1.801502338010922,-3.7790428096218145,0.08031129620514922
7.259837958,1.6960397921814525,-3.7071145690797556,0.2910226273913641
7.264627594,1.575643007627006,-3.62473758536339,0.4978245230236413
7.269403948,1.4412379713241399,-3.5305056294865653,0.6991183596781692
7.274166969,1.2938738004103798,-3.42302547002563,0.893414222673297
7.278956656,1.1347087230499213,-3.300941592031518,1.0793454897704875
7.28373301,0.9649956577996581,-3.162961098677369,1.255680781855281
7.288496031,0.7860676803965012,-3.0078785003644235,1.421333135064782
7.293285666,0.5993236278654216,-2.8346000787520818,1.5753663233619606
7.298062021,0.4062140442866415,-2.642167499177014,1.7169983372026472
7.302825094,0.2082276231785122,-2.429780336828477,1.8456021009824102
7.307614729,0.0068782508215329535,-2.1968171810302994,1.9607035866575537
7.312391083,-0.19630729399967844,-1.942854987989487,2.061977549354679
7.317154104,-0.3998009719842015,-1.6676863649079563,2.14924116863675
7.321943791,-0.6020844701505237,-1.371334487171229,2.222445922979338
7.326720146,-0.801659590094891,-1.0540653757246,2.281668052790356
7.331483166,-0.9970580946639477,-0.7163972944413021,2.327097977797492
7.336272802,-1.1868510679770505,-0.3591070679730333,2.3590290275118835
7.341049156,-1.369657832020854,0.016766830648651927,2.377845819688089
7.345812229,-1.5441544458753875,0.40992451744177655,2.384012583785656
7.350601864,-1.7090817952115895,0.8188082936411697,2.3780616784592086
7.355378219,-1.8632532632438665,1.2416095710967443,2.3605824991017674
