Time (s),Acceleration x (m/s^2),Acceleration y (m/s^2),Acceleration z (m/s^2)
9.001934242,-0.11098048423444135,5.720141806769153,-0.9940414889927296
9.006711326,0.10846359126785309,4.855724824156295,-1.6014154349213856
9.011488409,0.32648987994299894,3.984918092212789,-2.20442387412763
9.016265492,0.5416043534037113,3.112584118583578,-2.7997330134802607
9.021029242,0.7523201085184227,2.2435298045813843,-3.3840608517632655
9.025819607,0.9571685164983011,1.3824690786450862,-3.9542023049769663
9.030596638,1.154710301152023,0.5339867229692288,-4.507053631275176
9.03536044,1.3435464601880045,-0.2974962822297909,-5.039635934379085
9.040150805,1.5223289418409593,-1.1077555837203963,-5.549117527987923
9.044927888,1.689770987879418,-1.8927941498629537,-6.032834948478443
9.049691638,1.8446570534094775,-2.6488705506964383,-6.488312409320837
9.054482003,1.9858522139782167,-3.372524557169226,-6.9132794985408355
9.059259086,2.112310971426463,-4.060599813346059,-7.305686930783503
9.064022836,2.2230853718991335,-4.710263358200786,-7.663720178810811
9.068813253,2.317332352619601,-5.319021799333812,-7.985810826506063
9.073590284,2.394320238806835,-5.884733970161967,-8.270645507771171
9.078354086,2.4534343189375405,-6.40561993569821,-8.517172324414245
9.083144451,2.4941814360855243,-6.880266251481666,-8.724604672696913
9.087921534,2.5161935460495966,-7.307627427821117,-8.892422453425905
9.092685284,2.5192302097950066,-7.6870236096536,-9.020370692636813
9.097475648,2.5031800075880177,-8.0181345514826,-9.108455653724612
9.102252732,2.468060882628614,-8.300990043451309,-9.156938570192267
9.107016482,2.41401943978909,-8.535957020923775,-9.166327165911666
9.111806846,2.3413292384273996,-8.723723657271035,-9.137365156091777
9.11658393,2.250388127705672,-8.865280792018327,-9.071019939326767
9.12134768,2.1417146800309275,-8.961901082533695,-8.968468702032542
9.126138096,2.0159437841297594,-9.015116288386459,-8.831083163278572
9.13091518,1.8738214639276687,-9.026693105579238,-8.660413191543759
9.13567893,1.716198992614354,-8.998607964977497,-8.45816952575229
9.140469294,1.5440263729581885,-8.933021196865326,-8.226205831200497
9.145246378,1.3583452551576027,-8.832250942790349,-7.966500316531319
9.150010128,1.160281362482231,-8.69874716784503,-7.681137130489792
9.154800492,0.9510364929362942,-8.535066092548428,-7.372287746609078
9.159577576,0.7318801623854047,-8.343845324962443,-7.042192530274485
9.164341326,0.5041409511160145,-8.127779932022356,-6.693142666155462
9.16913169,0.2691976117637912,-7.889599645644517,-6.327462605401415
9.173908773,0.028469992313374687,-7.632047355308697,-5.947493171926849
9.178672523,-0.21659017602659936,-7.357858995721984,-5.555575446099785
9.18346294,-0.46450857945647533,-7.069744896865432,-5.154035522658021
9.188239971,-0.7137976665708232,-6.770372624937618,-4.745170218243387
9.193003773,-0.9629659954542434,-6.462351306976147,-4.331233783173749
9.197794086,-1.2105275420982222,-6.148217399754003,-3.9144256525293315
9.202571221,-1.455010930261246,-5.83042183549429,-3.4968792537225757
9.207334971,-1.6949685431741495,-5.511318453737462,-3.080651871727246
9.212125336,-1.9289854771742847,-5.193153611151234,-2.6677155593996726
9.216902419,-2.155688296584245,-4.87805685013641,-2.2599490694722926
9.221666117,-2.373753548082982,-4.568032503999841,-1.859130777795647
9.226456534,-2.5819159914856114,-4.264952122997868,-1.4669325651911025
9.231233617,-2.778976502198758,-3.9705476235055985,-1.0849146282262851
9.235997367,-2.9638095987399398,-3.686405092209036,-0.7145211964037038
9.240787784,-3.135370547036014,-3.4139592156079566,-0.3570771417542917
9.245564815,-3.292701992312188,-3.154488346253057,-0.01378547237706902
9.250328565,-3.434940069463684,-2.9091102542849008,0.31427429920025896
9.25511893,-3.5613199435936553,-2.678778641149575,0.6261469289561256
9.259896013,-3.6711807335121738,-2.4642805099110214,0.9210013823861691
9.264659815,-3.763969772263284,-2.266234493732113,1.1981299815849542
9.26945018,-3.8392461602296866,-2.085090242340857,1.4569468062571205
9.274227263,-3.8966835681389873,-1.9211289573652028,1.6969854043843327
9.278991013,-3.9360722494552776,-1.774465152923629,1.9178958739713716
9.283781378,-3.9573202244034844,-1.645049699250203,2.119441380650714
9.288558409,-3.9604536016406544,-1.532674185734451,2.301494176851734
9.293322211,-3.9456160088529995,-1.4369766167544509,2.464031186976702
9.298112576,-3.913067110728091,-1.3574484300829042,2.607129220172794
9.302889659,-3.863180201941375,-1.2934428042515929,2.730959868593475
9.307653409,-3.796438873682912,-1.2441841986775868,2.835784145124655
9.312443826,-3.7134327641134535,-1.2087790490296795,2.921946910774752
9.317220909,-3.6148524151015247,-1.186227520561738,2.9898711384228336
9.321984607,-3.5014832689330277,-1.1754362041933515,3.040052056377569
9.326775023,-3.374198849019145,-1.1752316241706728,3.073051212181564
9.331552055,-3.233953177896551,-1.1843744123620934,3.089490494288082
9.336315857,-3.0817724941562763,-1.2015739927699005,3.090046146641489
9.341106221,-2.9187463375799974,-1.2255036107633177,3.0754428087763963
9.345883305,-2.746018078929813,-1.2548155349252703,3.0464476117362227
9.350647055,-2.5647749776838555,-1.2881562553117112,3.0038643578142086
9.355437419,-2.3762378575777903,-1.3241815004051156,2.948527809785945
9.360214503,-2.181650496019537,-1.3615708961585868,2.8812981129244206
9.364978253,-1.9822688290843211,-1.3990420943264106,2.8030553706857586
9.369768669,-1.7793500785599714,-1.435364203800098,2.714694392539993
9.374545701,-1.5741419110581285,-1.4693703679156862,2.6171196299740083
9.379309451,-1.3678717412688424,-1.4999693425960354,2.511240314139535
9.384099867,-1.1617362918832044,-1.5261559445821833,2.397965805866371
9.388876898,-0.9568915215274187,-1.547020255658251,2.2782011657949672
9.393640701,-0.7544430292829141,-1.5617554874091342,2.1528429493539085
9.398431065,-0.5554370400668454,-1.5696644313668335,2.0227752285261147
9.403208096,-0.3608520693887702,-1.57016444104275,1.8888658401850567
9.407971898,-0.1715913588898233,-1.5627909148408528,1.751962859566638
9.412762263,0.011523834252736044,-1.5471992716155576,1.612891297380369
9.417539346,0.18776002039152112,-1.523165433061033,1.472450020181531
9.422303096,0.35647626975539143,-1.4905848486364568,1.3314088957317958
9.427093461,0.5171279624551198,-1.4494701188642314,1.1905061677743556
9.431870544,0.6692694572253816,-1.3999472911662962,1.0504460674321185
9.436634294,0.8125556537214957,-1.3422509185857863,0.9118966708023969
9.441424711,0.9467424377189416,-1.2767179855633297,0.7754880138705874
9.446201742,1.0716860134971304,-1.203780816343638,0.6418104763492629
9.450965544,1.1873411425980267,-1.1239590906576076,0.5114134453758241
9.455755909,1.293758322636639,-1.0378510982061238,0.38480426821900676
9.460532992,1.3910799535723934,-0.9461243683148817,0.2624475003980586
9.465296742,1.4795355515710935,-0.8495058140544793,0.14476445210337127
9.470087107,1.5594360821110231,-0.7487715312166543,0.032133031730017955
9.47486419,1.6311674941890593,-0.6447363918775721,-0.07511211910941873
9.47962794,1.695183546281451,-0.538243569924094,-0.17667920936728204
9.484418305,1.751998022046407,-0.4301541319332856,-0.2723186161024051
9.489195388,1.802176439559681,-0.3213368212657109,-0.3618219553501293
9.493959138,1.846327362094693,-0.21265815627502943,-0.44502093027553585
9.498749503,1.8850934210766204,-0.10497295528045322,-0.521785984576378
9.503526586,1.9191421628909258,0.0008846084765376302,-0.5920247925797004
9.508290336,1.9491568307864737,0.10410932913517414,-0.655680620277308
9.513080753,1.975827191268917,0.20393258638541378,-0.7127305935557876
9.517857836,1.9998405112058453,0.29962919020907547,-0.7631839109933698
9.522621586,2.021872787406516,0.3905233955372321,-0.8070800387074424
9.527411951,2.042580324717559,0.47599404314672367,-0.8444869237264265
9.532189034,2.062591751723303,0.5554787962225748,-0.87549926011663
9.536952784,2.08250055503151,0.6284774550504556,-0.9002368385091901
9.541743148,2.1028582040065715,0.6945543451081411,-0.9188430046467085
9.546520232,2.124167927924152,0.7533397862451534,-0.9314832460948786
9.551283982,2.14687919723029,0.8045306625163028,-0.9383439185416925
9.556074346,2.1713829503543187,0.8478901233989053,-0.9396311145928177
9.56085143,2.198007597780381,0.883246457419549,-0.9355696692777714
9.56561518,2.2270158260829436,0.9104911885315267,-0.9264022881780383
9.570405544,2.258602216400516,0.9295764538623226,-0.9123887765524876
9.575182628,2.2928916842167157,0.9405117286823802,-0.8938053412291116
9.57994643,2.32993874015157,0.9433599706420174,-0.8709439313910696
9.584736794,2.369727564583477,0.9382332604888142,-0.8441115797454034
9.589513878,2.412172882212421,0.9252880206088742,-0.8136297020682708
9.594277628,2.4571216160493967,0.9047198958229903,-0.779833311083618
9.599067992,2.5043552936975795,0.8767583829045781,-0.7430701005207211
9.603845076,2.5535931721179463,0.8416612962684471,-0.7036993575254078
9.608608826,2.604496040320226,0.7997091572214164,-0.6620906667501258
9.61339919,2.65667065261072,0.7511995931024212,-0.6186223774678594
9.618176273,2.709674738247061,0.6964418306294673,-0.5736798155372428
9.622940023,2.763022526766854,0.6357513648938369,-0.5276532341540539
9.627730388,2.816190722126867,0.5694448817906971,-0.4809355099763281
9.632507471,2.8686248534015597,0.4978355073298978,-0.4339196033389598
9.637271221,2.9197459253928173,0.421228452271475,-0.38699581202769745
9.642061638,2.9689572892489178,0.33991711486844534,-0.3405488569095333
9.646838669,3.015651651130381,0.2541796981331515,-0.29495484434501035
9.651602471,3.059218136077419,0.16427639092370017,-0.25057815468592315
9.656392836,3.099049324496508,0.07044715424099056,-0.20776830839539587
9.661169919,3.134548180079678,-0.027089854562555436,-0.16685686163027863
9.665933669,3.165134790505001,-0.12813919638123095,-0.12815438177748484
9.670724034,3.19025284593169,-0.2325283905238945,-0.09194755074500585
9.675501065,3.2093757850466105,-0.3401074777244757,-0.05849644008205028
9.680264867,3.2220125441504552,-0.4507479140303296,-0.028031997521742673
9.685055232,3.227712851394455,-0.5643408143400799,-0.0007537795451610943
9.689832315,3.2260720157045473,-0.6807945747513562,0.023172040745290556
9.694609398,3.216735168048824,-0.8000319126021415,0.04361436663383249
9.69938643,3.1994009213330465,-0.9219863718846038,0.060478553421760936
9.704163513,3.1738244240837465,-1.0465983493963538,0.07370745398366381
9.708940596,3.139819791896594,-1.1738107034799186,0.0832821270683031
9.71371768,3.097261909111831,-1.3035640124926207,0.08922220654812374
9.718494763,3.0460876011213713,-1.4357915543520476,0.09158593495048221
9.723258513,2.9862961849856724,-1.5704140818022139,0.09046986930644611
9.728048878,2.917949412571476,-1.7073344706528382,0.0860082714336045
9.732825961,2.8411708261718327,-1.8464323203300064,0.07837219805912027
9.737589659,2.7561445515125156,-1.9875585877317992,0.06776830860418669
9.742380076,2.6631135571783813,-2.1305303366129964,0.05443741001269531
9.747157159,2.5623774128229875,-2.275125685465142,0.03865275881878878
9.751920909,2.4542895810826737,-2.4210790369992337,0.02071814084859436
9.756711273,2.339254279951898,-2.5680766717362946,0.0009657486705059153
9.761488357,2.2177229535761636,-2.7157527867209375,-0.02024612374469071
9.766252107,2.090190390087945,-2.863686057883373,-0.04253555059078827
9.771042523,1.95719052531972,-3.011396801054294,-0.06549959041082302
9.775819555,1.8192919709817494,-3.15834480215855,-0.0887170320750298
9.780596638,1.677093305181979,-3.3039278818234377,-0.11175125420013492
9.785373721,1.5312181620693905,-3.4474812536579087,-0.1341531818654515
9.790150805,1.3823101561301339,-3.5882777287963536,-0.1554643246747958
9.794914555,1.2310276756115044,-3.7255288118343097,-0.17521988074084116
9.799704919,1.0780385790623037,-3.8583867248465245,-0.19295189231397844
9.804482003,0.9240148293170461,-3.9859473866637525,-0.20819244065893744
9.809245753,0.7696271004817348,-4.107254364010625,-0.22047687036160166
9.814036117,0.6155393954914552,-4.221303799612451,-0.2293470363867088
9.818813201,0.46240371440575845,-4.327050310178748,-0.23435457067959792
9.823576951,0.3108548165654786,-4.423413834494345,-0.23506416857642048
9.828367315,0.16150512282452606,-4.509287398885521,-0.23105689828461085
9.833144398,0.014939807048119423,-4.583545754202185,-0.2219335386259497
9.837908148,-0.1282878713072219,-4.645054825232735,-0.20731795051121307
9.842698565,-0.2676609396385411,-4.69268190021387,-0.1868604858751793
9.847475596,-0.4027027343478784,-4.725306474948657,-0.16024143405288088
9.852239398,-0.532980516670904,-4.7418316532195695,-0.12717450017211243
9.857029763,-0.658108626243083,-4.7411959929615755,-0.0874103036406966
9.861806846,-0.7777511174925785,-4.722385676385173,-0.040739877890847896
9.866570596,-0.8916238260886247,-4.684446872281141,0.013001854163659789
9.871360961,-0.9994958161149174,-4.626498150422735,0.0739326605930679
9.876138044,-1.10119016357779,-4.547742801535104,0.14211967384619914
9.880901794,-1.1965840384971347,-4.447480911880426,0.21757619881822302
9.885692159,-1.2856080563829897,-4.325121039252554,0.3002587015373129
9.890469242,-1.3682448806197307,-4.180191337250038,0.3900640280461932
9.895232992,-1.4445270703663804,-4.012349977269671,0.48682690586793775
9.900023357,-1.5145341840484559,-3.8213947228585785,0.5903177819992367
9.90480044,-1.5783891660390255,-3.6072715189030125,0.7002410512058231
9.90956419,-1.6362540629545352,-3.370081968452692,0.8162337262631605
9.914354607,-1.6883251349578539,-3.110089582349342,0.9378645977818705
9.919131638,-1.7348274451595949,-2.8277247005973964,1.0646339257721165
9.92389544,-1.7760090253814638,-2.5235879989621726,1.1959736988021308
9.928685805,-1.8121347284790201,-2.1984525092603233,1.3312484904549926
9.933462888,-1.8434798859729378,-1.8532640971397598,1.469756937883376
9.938226638,-1.8703238949864698,-1.4891403567777708,1.6107338642606823
9.943017003,-1.892943860466465,-1.1073678976473114,1.753353065293601
9.947794086,-1.9116084174140744,-0.7093980140295152,1.8967307779143114
9.952557836,-1.9265718535131624,-0.29684074314132447,2.039929844787214
9.957348201,-1.9380686453593152,0.1285426673377053,2.181964580258679
9.962125284,-1.9463085118207721,0.5648488467660833,2.3218063320661377
9.966889034,-1.9514720764203382,1.0100428937096362,2.4583897196540443
9.971679398,-1.9537072175375818,1.4619704075806708,2.5906195158527185
9.976456482,-1.9531261710248526,1.918370879692243,2.7173781254258427
9.981220232,-1.9498034346979862,2.3768923489657565,2.8375336026718943
9.986010648,-1.943774508381129,2.8351072132331323,2.9499481414377158
9.99078768,-1.9350354872203737,3.2905290734694943,3.0534869645819582
9.995551482,-1.9235435103793495,3.740630475644055,3.147027535678912
10.00034185,-1.909218052481755,4.182861403439448,3.2294690129430186
10.00511893,-1.891943031621159,4.614668365100522,3.2997418634175735
10.00988268,-1.871569695554189,5.033513909323161,3.356817554085995
10.01467304,-1.8479202367304914,5.43689639849575,3.3997182356629545
10.01945013,-1.8207920768899117,5.822369862794081,3.427526334463736
10.02421388,-1.7899627529778364,6.187563755579939,3.439393967933447
10.02900424,-1.755195328153355,6.5302024292087335,3.4345520999949466
10.03378133,-1.7162442447764168,6.8481241506488875,3.4123193531046505
10.03854508,-1.6728615304682821,7.139299478209339,3.372110394560643
10.04333549,-1.6248032636076004,7.401848824143546,3.3134438150541405
10.04811252,-1.5718362009376516,7.634059032939246,3.2359494177269474
10.05287627,-1.5137444673614635,7.834398811674713,3.1393748363428737
10.05766669,-1.4503362065983423,8.001532856838457,3.0235914020266716
10.06244377,-1.3814500913190555,8.134334531350571,2.888599179844063
10.06720752,-1.3069615928124279,8.231896956073761,2.7345310996589527
10.07199789,-1.2267889132471792,8.2935423917854,2.5616561103784417
10.07677497,-1.1408984881711148,8.318829800386201,2.3703812928551153
10.08153872,-1.049309972945786,8.307560488089667,2.161252874200947
10.08632909,-0.9521006342106283,8.259781748535246,1.9349560948728524
10.09110617,-0.84940907604138,8.175788440242943,1.6923138894286662
10.09586992,-0.7414382400276873,8.056122450576108,1.4342843521786992
10.10066034,-0.6284576288413595,7.901570017346463,1.1619569699589818
10.10543737,-0.5108047137747292,7.713156899266491,0.8765476158277413
10.11020112,-0.3888854979384466,7.49214140744127,0.579392309542774
10.11499153,-0.26317421802824287,7.240005331724422,0.271939763130188
10.11976857,-0.13421217850947925,6.958442817718758,-0.04425725736930533
10.12453237,-0.0026057224904682177,6.64934727216321,-0.3675517098638289
10.12932273,0.13097664667000297,6.314796396136871,-0.6962131365763743
10.13409982,0.26580796986582644,5.957035466688783,-1.0284395362513996
10.13886357,0.40110733120572045,5.578459007948141,-1.3623701644624107
10.14365393,0.5360451118367385,5.181591012283882,-1.6960991653350486
10.14843101,0.6697489515817288,4.76906389050122,-2.027689925427193
10.1532081,0.801310364314326,4.343596347267784,-2.3551900284141096
10.15798513,0.9297919462626069,3.907970393864539,-2.6766466776816396
10.16276221,1.0542351098509464,3.46500772485395,-2.990122442971104
10.16752596,1.1736682691601723,3.017545698188851,-3.2937111768632805
10.17231638,1.2871153966082982,2.5684131694161585,-3.5855539371623015
10.17709341,1.3936048641417247,2.1204064396839573,-3.863854742229793
10.18185716,1.4921784763063088,1.6762655839763991,-4.126895978219344
10.18664758,1.5819005973522033,1.238651430166463,-4.373053270296391
10.19142461,1.6618672703494768,0.8101234609143779,-4.6008096247620545
10.19618836,1.731215223419509,0.39311890894623136,-4.808768646157072
10.20097877,1.7891306567628198,-0.010066688471711202,-4.995666633734863
10.20575586,1.8348577042366976,-0.3972972184232907,-5.160383366221246
10.21051961,1.8677064648732822,-0.7666117597968248,-5.3019513937603895
10.21530997,1.8870605031261507,-1.1162381622766555,-5.419563672687994
10.22008706,1.8923837221460054,-1.4446042340993168,-5.512579403630915
10.2248508,1.8832265225255251,-1.7503463686815623,-5.58052796779081
10.22964117,1.8592311704153126,-2.032315484712774,-5.623110900698935
10.23441825,1.8201363143143234,-2.2895802130100797,-5.640201895032247
10.239182,1.7657806087282784,-2.521427335807675,-5.63184487822204
10.24397237,1.6961054228943953,-2.727359564091811,-5.598250258967221
10.24874945,1.6111566306435103,-2.9070908157170945,-5.5397894744517755
10.2535132,1.5110854914661638,-3.0605392215715495,-5.456987996699445
10.25830362,1.396148643465202,-3.187818134071676,-5.350516974519118
10.26308065,1.266707237289224,-3.289225441913262,-5.221183699469137
10.26784445,1.1232252468300286,-3.365231509896401,-5.069921091755245
10.27263482,0.9662669973998638,-3.4164660655071803,-4.897776405690179
10.2774119,0.7964939553406903,-3.4437043467424853,-4.705899354546624
10.28217565,0.6146608248008727,-3.447852809758685,-4.495529851389801
10.28696601,0.42161099801674423,-3.4299346714652024,-4.267985555779248
10.2917431,0.21827140510524723,-3.391075532450403,-4.024649406074403
10.29650685,0.0056468083112608475,-3.332489291097145,-3.766957303517235
10.30129721,-0.21518641600136687,-3.2554645220031513,-3.496386097541057
10.30607429,-0.4430869663797037,-3.16135145245789,-3.214442002361299
10.31083804,-0.6768557371385798,-3.0515496312460733,-2.9226495534922905
10.31562841,-0.9152433333246384,-2.9274963457334273,-2.6225411901564097
10.32040549,-1.156957942591525,-2.7906558070087715,-2.315647526518211
10.32516924,-1.4006735263301744,-2.6425090895002805,-2.0034883522965803
10.32995966,-1.6450382911026706,-2.4845447815375006,-1.6875643824066728
10.33473674,-1.8886833993701488,-2.318250277407855,-1.3693497562246675
10.33950049,-2.1302318756612144,-2.1451036202403095,-1.0502852698183427
10.34429086,-2.368307660762937,-1.9665657892906887,-0.7317723090332435
10.34906794,-2.6015447625341492,-1.7840733157713071,-0.41516743818221447
10.35383169,-2.8285964480171626,-1.5990311094722336,-0.10177758961232314
10.35862206,-3.048144417983252,-1.412805385984829,0.20714420418222057
