"Time (s)","Acceleration x (m/s^2)","Acceleration y (m/s^2)","Acceleration z (m/s^2)"
6.710701000E-3,-3.141776085E0,4.067200184E0,7.350152969E0
1.148773200E-2,-3.014358282E0,4.076771736E0,7.263412952E0
1.626481500E-2,-2.685345173E0,4.140181541E0,7.314260483E0
2.104189800E-2,-2.242672920E0,4.275974274E0,7.456035137E0
2.581898200E-2,-1.800000787E0,4.426722050E0,7.649854183E0
3.059601300E-2,-1.485344648E0,4.561916351E0,7.778468132E0
3.537309600E-2,-1.256830096E0,4.717449665E0,7.820342541E0
4.015012800E-2,-1.128814101E0,4.847260475E0,7.910671711E0
4.492726300E-2,-1.141974568E0,4.919643402E0,8.045268059E0
4.970429400E-2,-1.212562919E0,4.919643402E0,8.165507317E0
5.448137800E-2,-1.350150228E0,4.861019135E0,8.233104706E0
5.925846100E-2,-1.534995675E0,4.779065132E0,8.282156944E0
6.403554400E-2,-1.734198213E0,4.691727161E0,8.345566750E0
6.881262800E-2,-1.938186288E0,4.589433670E0,8.413763046E0
7.358965900E-2,-2.108675003E0,4.526622295E0,8.515457153E0
7.836674200E-2,-2.273779631E0,4.467998028E0,8.674580574E0
8.314377300E-2,-2.439482689E0,4.463212490E0,8.824729919E0
8.792085700E-2,-2.562114954E0,4.486542225E0,9.046066284E0
9.269794000E-2,-2.641077995E0,4.543970108E0,9.305686951E0
9.747502300E-2,-2.659024239E0,4.612165451E0,9.564710617E0
1.022521070E-1,-2.577668190E0,4.689334393E0,9.722636223E0
1.070291380E-1,-2.330609322E0,4.776672363E0,9.701699257E0
1.118062210E-1,-1.908874273E0,4.782055855E0,9.493523598E0
1.165833050E-1,-1.491326690E0,4.691727161E0,9.131608963E0
1.213603880E-1,-1.170090318E0,4.567300320E0,8.736195564E0
1.261374190E-1,-1.063011408E0,4.447061062E0,8.318049431E0
1.309145030E-1,-1.255633712E0,4.509274483E0,7.954938889E0
1.356915340E-1,-1.457827210E0,4.561916351E0,7.604988575E0
1.404686690E-1,-1.445264935E0,4.480560303E0,7.283751965E0
1.452457010E-1,-1.652842283E0,4.750350952E0,6.829115868E0
1.500095030E-1,-1.852044702E0,4.846662045E0,6.339783669E0
1.547998150E-1,-2.067996979E0,4.541577339E0,6.653841496E0
1.595768980E-1,-2.133799553E0,4.508078098E0,6.764509678E0
1.643539820E-1,-1.919641972E0,4.556532383E0,6.753741741E0
1.691310650E-1,-1.659422517E0,4.591228485E0,6.488138676E0
1.739081480E-1,-1.640878081E0,4.446462631E0,6.358327866E0
1.786851800E-1,-1.734198213E0,4.340580463E0,6.527021885E0
1.834622630E-1,-1.761117458E0,4.258625984E0,6.877570629E0
1.882393460E-1,-1.605584025E0,4.268197536E0,7.371089935E0
1.930164300E-1,-1.289133191E0,4.447061062E0,7.892725468E0
1.977935130E-1,-8.985049129E-1,4.722833633E0,8.096714020E0
2.025705440E-1,-6.939185858E-1,4.843671322E0,8.191229820E0
2.073476280E-1,-7.088736892E-1,4.805386066E0,8.062017441E0
2.121246590E-1,-3.224328458E-1,4.955535889E0,8.256434441E0
2.169017940E-1,4.785645381E-2,5.119443893E0,9.104091644E0
2.216655440E-1,9.990034252E-2,5.195415974E0,1.138325596E1
2.264559090E-1,4.965106845E-1,4.998606682E0,1.308455276E1
2.312329920E-1,1.094118118E0,4.826921463E0,1.195394325E1
2.359967420E-1,9.607182741E-1,4.557130814E0,1.016052341E1
2.407871070E-1,5.838487148E-1,4.359124660E0,9.125627518E0
2.455641900E-1,4.456632137E-1,4.185645103E0,9.078967094E0
2.503412730E-1,3.613162339E-1,4.103690624E0,9.247062683E0
2.551183570E-1,3.858426511E-1,3.867997885E0,9.194420815E0
2.598953880E-1,3.128615618E-1,3.631706476E0,8.834898949E0
2.646724710E-1,2.919243574E-1,3.626920938E0,8.537590981E0
2.694495030E-1,3.391826153E-1,3.637090445E0,8.460422516E0
2.742266380E-1,4.492524564E-1,3.492324591E0,8.536395073E0
2.790037210E-1,5.970092416E-1,3.526422262E0,8.526225090E0
2.837807530E-1,5.371887088E-1,3.786641836E0,8.219346046E0
2.885577840E-1,5.156532526E-1,3.984049797E0,7.835896015E0
2.933349190E-1,4.570291340E-1,4.022933006E0,7.686942577E0
2.981119510E-1,5.048855543E-1,4.080360889E0,7.691728592E0
3.028890340E-1,7.567301393E-1,4.186841488E0,7.757531166E0
3.076661170E-1,8.566305041E-1,4.350749969E0,7.867002487E0
3.124432010E-1,1.095314622E0,4.505684853E0,8.053044319E0
3.172202320E-1,9.391828775E-1,4.596612453E0,8.260024071E0
3.219973150E-1,6.544370055E-1,4.683351994E0,8.400602341E0
3.267743980E-1,2.081755698E-1,4.715655327E0,8.580063820E0
3.315514300E-1,-2.757728100E-1,4.724030018E0,8.832506180E0
3.363285130E-1,-6.113662124E-1,4.689334393E0,9.093324661E0
3.411055960E-1,-7.674978375E-1,4.655236244E0,9.300303459E0
3.458826800E-1,-7.854440212E-1,4.655236244E0,9.458827972E0
3.506597630E-1,-6.233302951E-1,4.684548378E0,9.491728783E0
3.554367940E-1,-2.452643216E-2,4.555335999E0,9.387641907E0
3.602138780E-1,5.180460811E-1,4.359124660E0,9.260223389E0
3.649909610E-1,7.369893789E-1,4.133601189E0,9.183054924E0
3.697680440E-1,8.135597110E-1,3.897907972E0,9.120243073E0
3.745450760E-1,7.190431952E-1,3.719642878E0,9.068199158E0
3.793221590E-1,5.521438122E-1,3.608376503E0,9.001798630E0
3.840992420E-1,3.852444589E-1,3.550350666E0,8.968897820E0
3.888763260E-1,2.811566591E-1,3.540181160E0,9.037093163E0
3.936534090E-1,9.631111473E-2,3.534797192E0,9.124430656E0
3.984304400E-1,-9.870393574E-2,3.427718401E0,9.115457535E0
4.032075230E-1,-1.363908947E-1,3.331407309E0,9.106484413E0
4.079846070E-1,-1.507478207E-1,3.278765202E0,9.049057007E0
4.127616900E-1,-5.623133108E-2,3.437887907E0,9.072386742E0
4.175387210E-1,1.238285750E-1,3.760919094E0,9.138189316E0
4.223158050E-1,-2.333002165E-2,3.452244759E0,9.023932457E0
4.270928880E-1,2.392822653E-1,3.312862873E0,9.070592880E0
4.318699190E-1,5.156532526E-1,3.164507866E0,9.007183075E0
4.366470030E-1,6.634100676E-1,3.025125980E0,8.958727837E0
4.414240860E-1,6.305087805E-1,2.919243574E0,9.001798630E0
4.462011690E-1,6.514459848E-1,2.880360365E0,9.265607834E0
4.509782530E-1,5.718846321E-1,2.928216696E0,9.506086349E0
4.557552840E-1,6.000002623E-1,3.241676569E0,9.644271851E0
4.605323670E-1,1.345962733E-1,3.240479946E0,9.814760208E0
4.652961170E-1,-9.816554785E-1,3.064009428E0,1.081436157E1
4.700865340E-1,-1.029511929E0,3.107080221E0,1.078564835E1
4.748635650E-1,-6.251249313E-1,2.934797049E0,9.862018585E0
4.796406480E-1,-6.059823632E-1,2.636890650E0,9.651450157E0
4.844177320E-1,-6.556333899E-1,2.371287346E0,1.007916737E1
4.891948150E-1,-4.528416991E-1,2.115853310E0,1.039023399E1
4.939718460E-1,5.682953820E-2,1.876571178E0,1.035374355E1
4.987489300E-1,7.034898400E-1,1.921436548E0,1.028375340E1
5.035260130E-1,8.650053740E-1,2.105085611E0,1.041176987E1
5.083030960E-1,6.897311211E-1,2.292324066E0,1.053739262E1
5.130801280E-1,4.121637046E-1,2.450848579E0,1.051466084E1
5.178572110E-1,2.213360965E-1,2.517847538E0,1.036211872E1
5.226342940E-1,1.818545163E-1,2.493919373E0,1.017069244E1
5.274113780E-1,3.002992272E-1,2.436491728E0,1.004088211E1
5.321884090E-1,4.480560422E-1,2.393420935E0,1.003489971E1
5.369654920E-1,5.252245665E-1,2.374278307E0,1.014018440E1
5.417425230E-1,5.874379873E-1,2.374278307E0,1.021196842E1
5.465196590E-1,6.825526357E-1,2.432304144E0,1.021615601E1
5.512966900E-1,1.310668588E0,2.746960402E0,1.046201897E1
5.560737730E-1,9.912267923E-1,2.500499725E0,1.020479012E1
5.608508570E-1,9.170492887E-1,2.245065928E0,9.576674461E0
5.656279400E-1,3.541377485E-1,2.446661234E0,9.492925644E0
5.704049710E-1,9.571290761E-2,2.609373093E0,9.354740143E0
5.751820550E-1,1.932204217E-1,2.586043119E0,8.937192917E0
5.799591380E-1,1.351944804E-1,2.687139750E0,8.846264839E0
5.847361690E-1,1.782652885E-1,2.870190859E0,8.994620323E0
5.895132530E-1,3.349951804E-1,2.933002472E0,8.979664803E0
5.942903360E-1,3.720839322E-1,2.899502754E0,8.845068932E0
5.990674190E-1,3.385843933E-1,2.812762976E0,8.724829674E0
6.038445030E-1,3.385843933E-1,2.730808735E0,8.691329956E0
6.086215340E-1,4.157529473E-1,2.711666346E0,8.830712318E0
6.133986170E-1,7.220342159E-1,2.842075109E0,9.092725754E0
6.181757010E-1,6.711867452E-1,2.842075109E0,9.385248184E0
6.229527840E-1,2.901297510E-1,2.672782898E0,9.272188187E0
6.277298150E-1,4.097708762E-1,2.754737139E0,9.454042435E0
6.325068980E-1,6.113662124E-1,2.793620348E0,9.683155060E0
6.372839820E-1,7.172485590E-1,2.764906645E0,9.913464546E0
6.420610650E-1,7.381857634E-1,2.716451883E0,1.012463093E1
6.468380960E-1,7.435696125E-1,2.697309256E0,1.026341438E1
6.516151800E-1,8.153542876E-1,2.692523718E0,1.031127071E1
6.563922110E-1,8.344969153E-1,2.702095032E0,1.038305569E1
6.611693460E-1,7.824530005E-1,2.731407166E0,1.042134094E1
6.659463780E-1,7.441678643E-1,2.769692183E0,1.039801121E1
6.707234610E-1,7.435696125E-1,2.822334290E0,1.032562828E1
6.755005440E-1,8.572286963E-1,2.808575630E0,1.023888779E1
6.802776280E-1,8.327022791E-1,2.866003275E0,1.018146038E1
6.850546590E-1,7.417750359E-1,2.962314367E0,1.006181908E1
6.898317420E-1,6.975077987E-1,3.058625460E0,9.946963310E0
6.946087730E-1,6.681957245E-1,3.111267567E0,9.855438232E0
6.993859090E-1,6.634100676E-1,3.116053343E0,9.774082184E0
7.041629400E-1,6.963114142E-1,3.082553864E0,9.744770050E0
7.089400230E-1,6.963114142E-1,3.082553864E0,9.730413437E0
7.137170550E-1,6.484549642E-1,3.082553864E0,9.677771568E0
7.184941900E-1,5.431707501E-1,3.096910715E0,9.592227936E0
7.232712210E-1,4.139583111E-1,3.077169895E0,9.497113228E0
7.280483050E-1,2.949153781E-1,3.023929596E0,9.435498238E0
7.328253880E-1,1.902294010E-1,2.965903759E0,9.401998520E0
7.376024190E-1,9.511470050E-2,2.932404041E0,9.378668785E0
7.423795030E-1,-4.785645287E-3,2.883949518E0,9.369695663E0
7.471565860E-1,-3.349951655E-2,2.849851847E0,9.364909172E0
7.519336690E-1,1.435693540E-2,2.830709219E0,9.355338097E0
7.567107530E-1,5.682953820E-2,2.845664263E0,9.321240425E0
7.614877840E-1,1.232303679E-1,2.888735056E0,9.282955170E0
7.662648670E-1,1.884347796E-1,2.927618504E0,9.157930374E0
7.710419510E-1,2.303091735E-1,2.971287489E0,8.985049248E0
7.758190340E-1,2.721835673E-1,3.014956474E0,8.811569214E0
7.805960650E-1,3.038884699E-1,3.058027267E0,8.667402267E0
7.853731480E-1,3.888336718E-1,3.087339401E0,8.532207489E0
7.901502320E-1,4.737788737E-1,3.131008387E0,8.431110382E0
7.949273150E-1,5.449653864E-1,3.160320520E0,8.320442200E0
7.997043460E-1,6.675975323E-1,3.203989506E0,8.190033913E0
8.044814300E-1,8.853443861E-1,3.262015581E0,8.059624672E0
8.092585130E-1,1.259821177E0,3.373879910E0,7.980661869E0
8.140355960E-1,1.178465128E0,3.383451223E0,7.871190071E0
8.188126800E-1,9.056833982E-1,3.315255880E0,7.521838188E0
8.235897110E-1,1.098903775E0,3.364308596E0,7.252047062E0
8.283667940E-1,1.382453322E0,3.437289715E0,7.020541668E0
8.331438780E-1,1.686341763E0,3.506083488E0,6.836294174E0
8.379209090E-1,1.470389485E0,3.466601849E0,6.669394970E0
8.426979920E-1,1.121635556E0,3.311666489E0,6.282355785E0
8.474750760E-1,1.177268744E0,3.263810158E0,6.023332596E0
8.522388260E-1,1.438684583E0,3.297907829E0,6.036493301E0
8.570292420E-1,9.349954724E-1,3.142972469E0,6.029314995E0
8.618062730E-1,6.460621357E-1,2.992822886E0,6.098108292E0
8.665833570E-1,6.329016089E-1,2.891726255E0,6.280561447E0
8.713604400E-1,6.628118753E-1,2.771486759E0,6.433701992E0
8.761374710E-1,8.261220455E-1,2.708675146E0,6.668796539E0
8.809145550E-1,8.901300430E-1,2.627319336E0,6.908079147E0
8.856916380E-1,6.909275651E-1,2.313261271E0,6.847062111E0
8.904687210E-1,1.004985452E0,2.241476536E0,6.893722057E0
8.952458050E-1,9.960124493E-1,2.126022816E0,6.869793892E0
9.000228360E-1,7.950153351E-1,2.134995937E0,6.683752060E0
9.047999190E-1,6.664010882E-1,2.125424623E0,6.602993965E0
9.095770030E-1,5.605186820E-1,1.937588096E0,6.367899418E0
9.143540340E-1,4.492524564E-1,1.936989903E0,6.104688644E0
9.191311170E-1,3.619144261E-1,2.023729801E0,5.870192051E0
9.239082010E-1,3.786641955E-1,2.091326952E0,5.553143024E0
9.286852840E-1,4.001995921E-1,2.081755638E0,5.115854740E0
9.334623670E-1,4.073780477E-1,1.971685886E0,4.694119930E0
9.382261170E-1,5.024927258E-1,1.788634896E0,4.506881237E0
9.430164820E-1,6.544370055E-1,1.596610904E0,4.357329845E0
9.477935650E-1,7.914260626E-1,1.471585870E0,4.130609989E0
9.525573150E-1,9.463613629E-1,1.414756417E0,3.842274904E0
9.573476800E-1,1.177866936E0,1.314257860E0,3.538984776E0
9.621247630E-1,1.405185103E0,1.194018483E0,3.340978622E0
9.668885130E-1,1.639083505E0,1.088734269E0,3.296711445E0
9.716789300E-1,1.825723648E0,9.972088337E-1,3.410968781E0
9.764559610E-1,2.035693884E0,9.738788009E-1,3.587439299E0
9.812330440E-1,2.218146563E0,9.834501147E-1,3.830909014E0
9.860101280E-1,2.257628202E0,9.547362328E-1,4.104289055E0
9.907872110E-1,2.265404940E0,9.308080077E-1,4.512265205E0
9.955642420E-1,2.330011129E0,9.834501147E-1,5.059025288E0
1.000341326E0,2.537588358E0,9.595218897E-1,5.557330608E0
1.005118357E0,2.702095032E0,9.308080077E-1,6.002395630E0
1.009882159E0,2.757728100E0,7.573283911E-1,6.352345943E0
1.014672523E0,2.655434847E0,5.449653864E-1,6.675376892E0
1.019449607E0,2.619542599E0,3.571287692E-1,7.001399040E0
1.024213357E0,2.721237659E0,1.938186288E-1,7.173682213E0
1.029003773E0,2.826521635E0,1.651047617E-1,7.226324558E0
1.033780805E0,3.035893679E0,7.836493850E-2,7.177271366E0
1.038557888E0,3.273381472E0,-8.015955985E-2,7.012764931E0
1.043334971E0,3.476771355E0,-2.045863420E-1,6.767500877E0
1.048112055E0,3.670589924E0,-3.002992272E-1,6.525825500E0
1.052889086E0,4.011567116E0,-3.810569942E-1,6.202794552E0
1.057666169E0,4.413561344E0,-4.522434771E-1,5.793023586E0
1.062443253E0,4.920241356E0,-6.000002623E-1,5.329414368E0
1.067207003E0,5.574678421E0,-7.573283911E-1,4.904089928E0
1.071997367E0,6.278168201E0,-8.901300430E-1,4.660620213E0
1.076774451E0,6.872186661E0,-9.559326172E-1,4.595416069E0
1.081538201E0,7.290332317E0,-8.781659007E-1,4.463810444E0
1.086328617E0,7.435696602E0,-8.291130662E-1,4.179064751E0
1.091105648E0,6.461219311E0,-1.713261008E0,3.868596077E0
1.095869451E0,6.990033150E0,-2.049452543E0,3.812962770E0
1.100659815E0,8.087740898E0,-1.608574986E0,3.869792461E0
1.105436898E0,8.735597610E0,-1.154536963E0,4.206582069E0
1.110200648E0,8.860622406E0,-7.537391186E-1,4.585246563E0
1.114991013E0,8.712266922E0,-5.084748268E-1,4.581058979E0
1.119768096E0,8.678169250E0,-5.952146053E-1,4.441677094E0
1.124531846E0,9.082556725E0,-8.979067206E-1,4.267001152E0
1.129322211E0,9.553942680E0,-1.243669510E0,4.120440483E0
1.134099294E0,9.802198410E0,-1.532004714E0,4.129413605E0
1.138863044E0,9.866206169E0,-1.729412556E0,4.354937077E0
1.143653461E0,9.882955551E0,-1.859821439E0,4.704887390E0
1.148430492E0,9.994820595E0,-2.018345833E0,5.026124001E0
1.153194294E0,1.016291618E1,-2.148754835E0,5.207380295E0
1.157984659E0,1.049671459E1,-2.306680918E0,5.287539959E0
1.162761742E0,1.104467106E1,-2.454437733E0,5.255835056E0
1.167525492E0,1.176730347E1,-2.635694027E0,5.113461971E0
1.172315857E0,1.241815090E1,-2.730808735E0,4.965705395E0
1.177092940E0,1.298824120E1,-2.580060959E0,4.867001057E0
1.181856690E0,1.318684578E1,-2.367697954E0,4.755734921E0
1.186647107E0,1.310010624E1,-2.227717876E0,4.674378872E0
1.191424138E0,1.307557964E1,-2.189432621E0,4.573880672E0
1.196187888E0,1.304148197E1,-2.266601324E0,4.381856441E0
1.200978305E0,1.320718479E1,-2.420340061E0,4.159922123E0
1.205755388E0,1.359661674E1,-2.650051117E0,3.918246984E0
1.210519138E0,1.401476192E1,-2.836691141E0,3.714857101E0
1.215309503E0,1.427557945E1,-2.908475876E0,3.583850145E0
1.220086534E0,1.433659649E1,-2.874378204E0,3.482753277E0
1.224850284E0,1.453161144E1,-2.835494757E0,3.428914785E0
1.229640701E0,1.479362583E1,-2.820539713E0,3.514458179E0
1.234417784E0,1.520040607E1,-2.906083107E0,3.814159393E0
1.239181534E0,1.580698681E1,-3.087937593E0,4.180859566E0
1.243971951E0,1.651466370E1,-3.221337557E0,4.618745804E0
1.248748982E0,1.706022644E1,-3.336193085E0,5.129613400E0
1.253512784E0,1.727259064E1,-3.384049416E0,5.647061348E0
1.258303148E0,1.747179222E1,-3.393620729E0,6.230910301E0
1.263080232E0,1.785464478E1,-3.306282759E0,6.738188744E0
1.267843982E0,1.799043655E1,-3.301496983E0,7.116254330E0
1.272634346E0,1.800060654E1,-3.344567776E0,7.284350395E0
1.277411430E0,1.810110474E1,-3.310470104E0,7.389036179E0
1.282175180E0,1.789891243E1,-3.253640652E0,7.731209755E0
1.286965544E0,1.766262054E1,-3.114258766E0,8.096714020E0
1.291742628E0,1.757109451E1,-2.979662418E0,7.996813297E0
1.296519711E0,1.757707787E1,-2.830111027E0,7.444071293E0
1.301296794E0,1.743889236E1,-2.656631231E0,6.759125710E0
1.306073826E0,1.723310852E1,-2.492722988E0,5.938985825E0
1.310837628E0,1.702254105E1,-2.280958176E0,5.051846981E0
1.315627992E0,1.687478256E1,-1.943570137E0,4.381258488E0
1.320405076E0,1.696032715E1,-1.634896040E0,3.703491211E0
1.325168826E0,1.723550224E1,-1.268195987E0,3.025125980E0
1.329959190E0,1.721695709E1,-9.589236975E-1,2.492722988E0
1.334736273E0,1.736411667E1,-4.336991012E-1,1.895713687E0
1.339500023E0,1.682991791E1,-4.348955154E-1,1.721037745E0
1.344290388E0,1.678445435E1,-1.890329868E-1,1.351944804E0
1.349067471E0,1.656132317E1,2.991028363E-3,7.770691514E-1
1.353831221E0,1.608634758E1,3.589234129E-2,2.231307179E-1
1.358621638E0,1.589013672E1,1.908276081E-1,-7.166503668E-1
1.363398669E0,1.503111362E1,1.555334777E-1,-1.945963025E0
1.368162471E0,1.346441269E1,-3.158525825E-1,-2.484946251E0
1.372952836E0,1.311805153E1,-5.910272002E-1,-3.283550978E0
1.377729867E0,1.292004585E1,2.237289101E-1,-4.905884743E0
1.382493669E0,1.205384445E1,4.336991012E-1,-4.805386066E0
1.387284034E0,1.125105190E1,8.374879509E-2,-3.970290899E0
1.392061117E0,1.028255749E1,-3.427718580E-1,-3.091526747E0
1.396824867E0,1.014018440E1,-1.061216831E0,-1.871785522E0
1.401615284E0,1.062831974E1,-1.604985833E0,-1.890329868E-1
1.406392315E0,1.055115128E1,-2.420340061E0,9.056833982E-1
1.411156065E0,1.069172955E1,-3.379263878E0,2.278565407E0
1.415946482E0,1.090409279E1,-4.391427994E0,4.596014023E0
1.420723565E0,9.942776680E0,-4.157529354E0,4.663012981E0
1.425487315E0,9.224330902E0,-3.292523861E0,4.465006828E0
1.430277680E0,1.044347477E1,-3.085544825E0,2.408974171E0
1.435054763E0,9.437292099E0,-2.795415163E0,4.554738045E0
1.439818513E0,7.953742504E0,-2.443670034E0,6.370890141E0
1.444608878E0,7.144370079E0,-1.963909149E0,7.396812916E0
1.449385961E0,6.292525291E0,-1.619342685E0,7.377072334E0
1.454149711E0,5.748157978E0,-1.423131227E0,7.293323517E0
1.458940128E0,5.845665932E0,-1.364507079E0,6.928418159E0
1.463717159E0,6.062216282E0,-1.624128342E0,6.346364021E0
1.468480909E0,6.597609997E0,-2.157727718E0,6.440282345E0
1.473271326E0,7.526025295E0,-2.554936409E0,6.373282909E0
1.478048409E0,6.845865726E0,-2.710469961E0,4.798207760E0
1.482812159E0,6.678368092E0,-2.782254457E0,3.767499208E0
1.487602523E0,6.171089649E0,-3.029911757E0,5.488536835E0
1.492379607E0,5.051846981E0,-4.519443989E0,1.071147060E1
1.497143357E0,3.434298754E0,-4.337589264E0,1.634896088E1
1.501933721E0,5.524429321E0,-3.805186272E0,1.064148045E1
1.506710805E0,7.549355507E0,-4.035495281E0,9.383454323E0
1.511474555E0,6.494719028E0,-3.875176191E0,1.135155106E1
1.516264971E0,4.216751575E0,-3.201596737E0,1.260120201E1
1.521042003E0,5.330610752E0,-2.204986095E0,8.587242126E0
1.525805805E0,5.867201328E0,-1.046261668E0,5.133202553E0
1.530596169E0,6.781259537E0,-3.583251834E-1,2.421536446E0
1.535373253E0,7.013961315E0,1.585244983E-1,1.100100160E0
1.540137003E0,6.505486488E0,5.383850932E-1,-2.560320199E-1
1.544927367E0,5.952744484E0,1.226321578E0,-2.244467735E0
1.549704451E0,5.376074314E0,1.721635938E0,-2.280359983E0
1.554468201E0,5.176273346E0,1.566700578E0,-1.579262972E0
1.559258565E0,5.660222054E0,7.417750359E-2,-1.772483349E0
1.564035648E0,4.975276470E0,-5.982056856E-1,1.106680512E0
1.568799398E0,4.136591911E0,-1.040279627E0,3.736392498E0
1.573589815E0,4.087539196E0,-1.353739381E0,5.647061348E0
1.578366898E0,4.506881237E0,-1.661815286E0,6.402595043E0
1.583130648E0,4.748556614E0,-1.771885157E0,6.967899323E0
1.587921013E0,4.732405186E0,-1.700100541E0,7.500302792E0
1.592698096E0,4.713262558E0,-1.757528186E0,7.462017536E0
1.597461846E0,4.798805714E0,-1.738385677E0,7.438089371E0
1.602252211E0,4.872385025E0,-1.699502230E0,7.073183537E0
1.607029294E0,4.587639332E0,-1.666002750E0,6.344569206E0
1.611806378E0,4.079164505E0,-1.590030670E0,5.690132141E0
1.616583461E0,3.541377544E0,-1.499701619E0,4.953741074E0
1.621360492E0,3.324228764E0,-1.408176184E0,4.499104977E0
1.626124242E0,3.444468260E0,-1.388435364E0,3.946362734E0
1.630914659E0,3.546163082E0,-1.532602906E0,3.365504980E0
1.635691742E0,3.034697294E0,-1.798206210E0,2.864208698E0
1.640455492E0,2.822932482E0,-2.030309916E0,3.076571703E0
1.645245857E0,3.204587698E0,-2.400599241E0,3.093919754E0
