Time (s),Acceleration x (m/s^2),Acceleration y (m/s^2),Acceleration z (m/s^2)
10.00034185,0.5491527915,-7.91306448,2.367697954
10.00511893,0.6197410822,-7.084549427,2.697907448
10.00988268,0.2458625287,-6.37687254,2.665604353
10.01467304,-0.3433700502,-5.694319725,2.284547329
10.01945013,-0.3852444589,-5.202594757,1.957927108
10.02421388,-0.6000002623,-4.620540619,1.287338614
10.02900424,-0.7495517135,-4.037290096,0.5527420044
10.03378133,-0.7453642488,-3.477967739,0.02991028316
10.03854508,-0.9433703423,-2.96291256,-0.1615155339
10.04333549,-1.24666059,-2.60279274,0.1417747438
10.04811252,-1.624128342,-2.319841623,0.7722834945
10.05287627,-2.21156621,-2.103889227,1.399203062
10.05766669,-2.717050076,-1.884347796,1.991426587
10.06244377,-3.125624657,-1.581655741,2.387438774
10.06720752,-3.477369547,-1.159322619,2.585444927
10.07199789,-3.773481369,-0.6538388133,2.682952404
10.07677497,-3.993621111,-0.1196411327,2.707478762
10.08153872,-4.028914928,0.3960121572,2.736192703
10.08632909,-4.125824451,0.9062815905,2.721835852
10.09110617,-4.022933006,1.407577872,2.663211584
10.09586992,-3.762713671,1.764706731,2.584846735
10.10066034,-3.35413909,1.886142492,2.539981127
10.10543737,-2.754737139,1.815554142,2.478964329
10.11020112,-2.065006018,1.691725612,2.441875458
10.11499153,-1.5224334,1.524826288,2.396411896
10.11976857,-1.127019525,1.275374413,2.336591244
10.12453237,-0.7752745152,0.9337990284,2.181656122
10.12932273,-0.5653043389,0.5682953596,1.940579176
10.13409982,-0.2321037948,0.1986042857,1.785643935
10.13886357,-0.1136590764,-0.1244267747,1.597807288
10.14365393,-0.2416750938,-0.3511467278,1.478764415
10.14843101,-0.5264210105,-0.6358926296,1.442273855
10.1532081,-0.7399803996,-1.00737834,1.476969719
10.15798513,-1.003190875,-1.576271892,1.6181463
10.16276221,-1.156929731,-2.328814745,1.73898387
10.16752596,-1.036092162,-3.132204771,1.614557028
10.17231638,-0.6837490797,-3.950550079,1.31126678
10.17709341,-0.1082752272,-4.811367989,0.756131947
10.18185716,0.5635097623,-5.811567783,-0.3984049559
10.18664758,1.109671474,-7.129415035,-2.074577332
10.19142461,1.441077471,-8.813364029,-4.767699242
10.19618836,2.053041935,-11.05005455,-8.627322197
10.20097877,2.866601467,-13.95613766,-13.34237862
10.20575586,4.118646145,-18.12802505,-18.50967979
10.21051961,5.897111416,-24.34038925,-25.07498741
10.21530997,7.520641804,-34.18386459,-36.46960831
10.22008706,11.55075264,-49.96393204,-42.38705826
10.2248508,17.49871254,-62.75476456,-33.43969727
10.22964117,11.44666576,-60.64609146,-19.83769608
10.23441825,3.47557497,-45.11188507,-12.63290691
10.239182,3.929612875,-30.89014435,-9.497113228
10.24397237,4.119244099,-20.88395691,-7.374081135
10.24874945,2.845066071,-13.76231956,-5.817550182
10.2535132,1.136590719,-8.73200798,-4.718048096
10.25830362,0.2159522474,-4.6402812,-3.689134359
10.26308065,-0.3822534084,-1.009771109,-2.363510609
10.26784445,-1.15094769,2.46221447,-0.9463613629
10.27263482,-1.818545222,5.21994257,0.2691925466
10.2774119,-1.9585253,6.881757736,1.660020709
10.28217565,-2.190030813,7.871788502,3.959523201
10.28696601,-2.798406124,8.048856735,4.87417984
10.2917431,-3.381656647,7.454240799,5.679364681
10.29650685,-2.724228621,5.981458187,6.603592396
10.30129721,-1.536192179,4.215555191,6.98704195
10.30607429,-0.8775677085,2.593819857,6.576673031
10.31083804,-0.7950153351,0.9517452121,5.185246468
10.31562841,-0.6640082598,-1.04685986,3.765704632
10.32040549,-0.05623133108,-3.246462107,3.111267567
10.32516924,0.584446907,-5.779264927,3.008974552
10.32995966,0.8691928387,-8.808578491,2.894717216
10.33473674,0.912861824,-12.31585789,1.994417667
10.33950049,0.199800685,-16.32921982,-0.8494520187
10.34429086,-1.012163997,-22.3136692,-5.393422127
10.34906794,-1.273579836,-32.73201752,-12.53001595
10.35383169,2.460419893,-47.04050064,-25.74677086
10.35862206,1.871187329,-52.26163864,-20.56690788
10.36339914,-2.61714983,-47.3742981,-7.29691267
10.36816289,-4.540380955,-37.53202057,4.814359188
10.37295325,-3.921238184,-26.73979378,8.307282448
10.37773034,-3.333800077,-18.10469437,6.253642082
10.38249409,-2.831905603,-11.85823059,3.626322746
10.3872845,-2.716451883,-7.174280643,2.427518606
10.39206153,-2.286342144,-3.66101861,2.317448616
10.39682534,-1.689931035,-1.05822587,2.389233351
10.4016157,-1.91066885,1.003789067,1.635494232
10.40639278,-3.351148129,2.16670084,0.08733802289
10.41115653,-5.398207664,2.620140791,-0.641874671
10.4159469,-7.138986588,2.500499725,-0.6951149702
10.42072398,-8.020143509,2.001596212,-0.2632105052
10.42548773,-8.391629219,1.335793257,0.003589233849
10.4302781,-8.446663857,0.5401797295,0.7142575383
10.43505518,-8.350951195,-0.1393819153,1.285543919
10.43981893,-8.349754333,-0.8518448472,1.852044702
10.44460929,-8.019545555,-1.757528186,2.484946251
10.44938638,-7.342376232,-2.753540754,2.93778801
10.45415013,-6.790830612,-3.831507206,3.224328518
10.45894054,-6.447460651,-5.020740032,3.496512175
10.46371758,-6.352345943,-6.287739754,3.597608805
10.46848133,-6.629314899,-7.545766354,3.552145243
10.47327174,-7.202396393,-8.654839516,3.306282759
10.47804877,-7.356134892,-9.883553505,3.216551781
10.48281258,-6.933203697,-11.34257793,3.104687452
10.48760294,-5.968297958,-12.93021584,2.952144861
10.49238002,-4.660620213,-14.51187134,2.735594511
10.49714377,-3.260220766,-16.11266899,2.182254314
10.50193414,-1.889133453,-17.15474319,1.796411633
10.50671122,-0.4115654826,-17.89771461,1.794018745
10.51147497,0.8297112584,-18.36192322,2.254039049
10.51626534,1.652842283,-18.4474659,2.993421078
10.52104242,1.948355794,-18.1340065,4.042674065
10.52580617,1.850250125,-17.42154312,4.738387108
10.53059659,1.875374794,-16.62174225,5.322834015
10.53537362,2.119442701,-15.9373951,5.239683151
10.54013742,2.867797852,-15.13520145,5.024329185
10.54492778,3.589832067,-14.14098358,4.688735962
10.54970487,4.179064751,-13.10848045,4.223930359
10.55446862,4.590630054,-12.14357471,3.616751432
10.55925893,4.707280159,-11.23250771,2.982055187
10.56403606,4.732405186,-10.36989498,2.117648125
10.56879982,4.582255363,-9.512067795,1.330409408
10.57359018,4.366302967,-8.721838951,0.6017948985
10.57836726,4.135993958,-8.033304214,-0.1316052526
10.58313101,3.820141315,-7.41236639,-0.8117650747
10.58792138,3.523431301,-6.829713821,-1.59840548
10.59269846,3.147160053,-6.324230194,-2.224726915
10.59746221,2.575873613,-5.877968788,-2.803191662
10.60225263,2.025524378,-5.488536835,-3.174677372
10.60702966,1.695913076,-5.248058319,-3.259622574
10.61179341,1.310070395,-5.037489891,-3.156731367
10.61658383,0.8979067206,-4.932804108,-2.814557552
10.62136091,0.6388836503,-4.875376225,-2.409572363
10.62612466,0.3649054468,-4.828117847,-1.966900229
10.63091502,0.1214357466,-4.86281395,-1.37587297
10.63569211,-0.1076770201,-4.979464054,-0.8267202377
10.64045586,-0.3128615618,-5.14397049,-0.2021935135
10.64524622,-0.4175475538,-5.307878971,0.4660021961
10.65002331,-0.4360919297,-5.511268616,1.186241865
10.65478706,-0.3810569942,-5.790630817,2.289931297
10.65957742,-0.009571290575,-6.083751678,3.017349243
10.6643545,0.7393822074,-6.525227547,3.133401155
10.66911825,1.480558991,-6.981060028,2.755933523
10.67390867,1.90229404,-7.399205685,2.168495417
10.6786857,2.023131609,-7.750352383,1.548754454
10.68344945,1.93040967,-7.977072716,0.9690931439
10.68823987,1.803590059,-8.159524918,0.3696911037
10.6930169,1.704287887,-8.342576027,-0.3589234054
10.6977807,1.622931957,-8.660223007,-1.481157184
10.70257106,1.56191504,-9.10349369,-3.025724173
10.70734815,1.610369682,-9.598209381,-4.73001194
10.7121119,1.588235974,-10.0462656,-6.226124287
10.71690226,1.459023595,-10.36869907,-7.281359196
10.72167935,1.348355532,-10.49372387,-7.573283672
10.7264431,1.269392371,-10.44586754,-7.241877556
10.73123346,1.306481123,-10.30169964,-6.589235306
10.73601054,1.472782373,-10.1282196,-5.663811207
10.74078763,1.79820621,-9.968499184,-4.542773724
10.74556471,2.247458696,-9.915258408,-3.393620729
10.75034174,2.801995277,-10.01097202,-2.292324066
10.75510549,3.293122053,-10.26102161,-1.421934843
10.75989591,3.669991732,-10.66481018,-0.6604190469
10.76467294,4.057030678,-11.31446171,-0.008973085321
10.76943674,4.556532383,-11.97846985,0.5066801906
10.77422711,5.189434052,-12.60359478,0.8781659007
10.77900419,5.914459229,-13.10728455,1.033699393
10.78376794,6.71964407,-13.39980698,0.9625129104
10.7885583,7.318448067,-13.51884937,0.7764709592
10.79333539,7.625327587,-13.358531,0.5353940725
10.79809914,7.498507977,-12.89611721,0.262014091
10.8028895,7.037889481,-12.3050909,-0.04307080805
10.80766659,6.449255466,-11.72303677,-0.342771858
10.81244367,6.042475224,-11.35274696,-0.4612165689
10.8172207,5.571089268,-11.10867882,-0.4923232496
10.82199778,5.186442852,-10.9501543,-0.3032902777
10.82677487,4.764110088,-10.95135117,-0.07058826834
10.83155195,4.24666214,-11.19841003,0.004187439568
10.83632898,3.719044685,-11.59023476,-0.05982056633
10.84109278,3.216551781,-12.03888893,-0.1190429255
10.84588315,2.731407166,-12.3924284,-0.1740778536
10.85066023,2.227717876,-12.69212914,-0.3110669553
10.85542398,1.66600275,-12.92423344,-0.537786901
10.86021435,0.9978070259,-13.03669643,-0.8464609981
10.86499143,0.3296113312,-13.00917816,-1.144965649
10.86975518,-0.1579262912,-12.84168053,-1.545763373
10.87454554,-0.3326023519,-12.5623188,-1.972284079
10.87932263,-0.2267199457,-12.27817154,-2.376072884
10.88408638,-0.2913261652,-12.13280678,-2.745764017
10.88887679,-0.5455635786,-12.11426258,-3.113660574
10.89365383,-0.5108676553,-12.12802124,-3.637090445
10.89841758,-0.02871387079,-12.10768223,-4.124029636
10.90320799,0.708275497,-11.91326618,-4.166502476
10.90798502,1.559522152,-11.61296654,-3.950550079
10.91274883,2.450250387,-11.24925709,-3.653241873
10.91753919,3.310470104,-10.95314598,-3.600001574
10.92231627,3.650849104,-10.64865875,-3.793820381
10.92708002,3.796811342,-10.3788681,-3.871587038
10.93187039,4.017549038,-10.10429192,-3.503092289
10.93664747,4.263411522,-9.886545181,-2.799602509
10.94141122,4.386044025,-9.771091461,-2.137987137
10.94620159,4.022933006,-9.468997002,-0.7298108935
10.95097867,3.561118364,-9.052047729,1.043270707
10.95574242,3.463610888,-8.835497856,2.39162612
10.96053278,4.072584152,-9.123832703,2.964707375
10.96530987,4.789234638,-9.777072906,3.196810961
10.97007362,4.902295589,-10.24965572,3.503690481
10.97486403,4.530809879,-11.07338524,2.997010469
10.97964107,3.809373617,-11.81695461,2.128415823
10.98440487,2.947359324,-12.4115715,1.537986755
10.98919523,1.956730723,-12.84287739,1.231705427
10.99397232,1.016351461,-13.33101273,1.207777262
10.99873607,-0.08434699476,-14.05185127,1.357926846
11.00352643,-1.513460279,-14.85045528,1.39022994
11.00830351,-3.051447153,-15.85185146,1.514058471
11.01306726,-5.041677475,-17.16192245,1.256231904
11.01785763,-7.459026337,-18.53061676,0.4923232496
11.02263471,-9.570094109,-20.04826546,-0.2009970993
11.02739846,-11.02253723,-21.21297073,-0.9409775138
11.03218883,-11.20798111,-21.76212311,-1.24666059
11.03696591,-9.914660454,-21.86022949,-1.37886405
11.04172966,-7.648059368,-21.51326942,-0.8530412912
11.04652008,-4.755136967,-20.5435791,1.243071318
11.05129711,-2.474776745,-19.66242218,5.0793643
11.05606086,-0.03050848842,-18.1722908,4.076771736
11.06085127,1.177268744,-16.92563057,2.308475733
11.0656283,2.029711723,-16.01217079,0.5419743061
11.07039211,3.517449379,-15.10529137,-4.686941147
11.07518247,4.014558315,-14.31745434,-7.013363361
11.07995956,4.464408875,-13.96451283,-7.965706348
11.0847233,4.631906509,-13.90170097,-7.770093441
11.08951367,4.801198483,-13.94537067,-5.740979671
11.09429075,4.718646049,-13.80239964,-2.789433002
11.0990545,4.27178669,-13.36152172,-0.1573280841
11.10384487,3.701098442,-12.57368469,1.850848317
11.10862195,3.017947674,-11.76132107,2.563909531
11.1133857,2.086541414,-10.79521942,2.563311338
11.11817606,1.067198873,-9.573683739,2.227119684
11.12295315,0.7369893789,-8.389834404,2.46819663
11.1277169,0.7507480979,-7.383054256,2.894119024
11.13250732,0.3571287692,-6.415157318,2.97726965
11.13728435,0.5485545993,-5.745765209,3.369692564
11.14204815,0.1274178028,-5.201996326,3.337987661
11.14683851,-0.3601198196,-4.846662045,3.099901676
11.1516156,-0.6891329288,-4.486542225,2.438884497
11.15637935,-0.9966106415,-3.999603033,1.408774376
11.16116971,-0.9272187948,-3.440280676,0.6400800347
11.16594679,-0.9834501147,-2.891128063,0.2608176768
11.17071054,-1.365703583,-2.449054003,0.185443759
11.17550091,-1.859821439,-2.142174482,0.500099957
11.18027799,-2.376072884,-1.872981906,1.025922656
11.18504174,-2.901895761,-1.658226132,1.5224334
11.18983216,-3.30927372,-1.466800332,1.932204247
11.19460919,-3.426522017,-1.25503552,2.316850424
11.19937294,-3.673580885,-0.903888762,2.519043922
11.20416336,-3.954737663,-0.500099957,2.611765862
11.20894039,-4.204189301,-0.04307080805,2.588435888
11.21370419,-4.305884361,0.4582255483,2.540579557
11.21849456,-4.313062668,0.9876375198,2.468794823
11.22327164,-4.24367094,1.4267205,2.347957134
11.22803539,-3.878765583,1.769492388,2.240280151
11.23282575,-3.352344513,1.972882271,2.117648125
11.23760284,-2.696112871,2.075773716,2.075773716
11.24236659,-2.015953064,2.125424623,2.167897224
11.24715695,-1.658824325,2.087737799,2.156531334
11.25193403,-1.335195065,1.939382792,2.097309113
11.25669778,-1.03549397,1.64626193,1.975873351
11.26148815,-0.8117650747,1.256830096,1.80658114
11.26626523,-0.7405785918,0.8333004713,1.566700578
11.27104232,-0.8213363886,0.4378865361,1.313659668
11.2758194,-1.030110121,0.0568295382,1.175474167
11.28059643,-1.280758262,-0.3583251834,1.234696507
11.28536023,-1.604985833,-0.8937192559,1.520040631
11.2901506,-1.839482427,-1.520638824,1.828714728
11.29492768,-1.946561217,-2.191227436,1.848455548
11.29969143,-2.040479422,-2.879761934,1.753939033
11.30448179,-1.969292998,-3.583251953,1.312463164
11.30925888,-1.532602906,-4.439284325,0.6436693072
11.31402263,-0.9493523836,-5.569892883,-0.2273181528
11.31881299,-0.4301098585,-6.911668301,-1.654038668
11.32359008,0.2051845491,-8.676973343,-3.691527128
11.32835383,0.9511470199,-11.02971554,-6.687939167
11.33314419,2.066202402,-14.2432766,-11.28395367
11.33792127,3.290131092,-18.75135422,-18.2219429
11.34268502,4.484149456,-25.63251495,-29.76013374
11.34747544,5.960521221,-38.7409935,-45.06223297
11.35225247,12.63888931,-57.29374695,-43.39025116
11.35701627,20.14397812,-67.43333435,-28.85265541
11.36180664,10.50628567,-60.89554214,-15.68136311
11.36658367,4.409972191,-43.68516541,-9.260223389
11.37134747,3.762713671,-29.12842751,-6.934400082
11.37613784,3.196212769,-19.22991943,-4.951946259
11.38091492,1.899901152,-12.13220882,-3.856033802
11.38567867,0.8051848412,-6.975078106,-3.550948858
11.39046903,0.3625126183,-3.030509949,-3.787240028
11.39524612,0.4025924206,-0.1298106313,-4.206582069
11.40000987,0.3972085714,2.210968018,-3.858426571
11.40480023,-0.1471585929,4.300500393,-3.102892876
11.40957732,-0.6448656917,5.946164131,-1.16769743
11.41434106,-1.113260746,7.163512707,0.6813562512
11.41913148,-1.124626637,7.779066563,2.240878344
11.42390851,-0.5682953596,7.712067604,4.455435753
11.42867226,-0.3385843933,7.394420147,4.617549419
11.43346268,-0.03349951655,6.546762943,5.00040102
11.43823976,0.7633104324,5.204987526,5.414957523
11.44300351,1.353739381,3.842873096,5.609374523
11.44779388,1.191027522,2.450250387,5.477170944
11.45257096,0.7555337548,0.6957131624,4.918447018
11.45733471,0.5784648657,-1.515853167,4.345366001
11.46212508,0.980459094,-4.000799656,4.171886444
11.46690216,1.465603828,-6.808776855,4.2574296
11.47166591,1.979462504,-10.03549862,4.060619831
11.47645627,1.509272933,-13.71625805,2.324028969
11.48123336,0.07238288224,-18.81536293,-0.4055834413
11.48599711,-0.4049852192,-27.53241539,0.05922235921
11.49078747,0.7286145091,-41.24209213,-7.759325504
11.49556456,3.512663603,-54.80879974,-24.98884583
11.5003283,1.57866478,-56.83910751,-20.9700985
11.50511872,-1.213161111,-51.38347244,-7.037291527
11.50989575,-2.906681299,-40.22933197,2.964707375
11.5146595,-2.562114954,-27.98824883,4.994419098
11.51944992,-2.463410854,-18.49592018,3.677170277
11.52422695,-2.774477959,-11.68355465,1.480558991
11.52899075,-3.209971666,-6.881159782,0.5341976285
11.53378112,-3.419343472,-3.403192043,0.7872386575
11.5385582,-3.047259569,-0.670588553,1.608574986
11.54332195,-3.068196774,1.521237016,1.72223413
11.54811232,-4.515256405,2.900699139,0.6873382926
11.5528894,-6.595217228,3.421138287,0.08434699476
11.55765315,-7.820342541,3.12921381,-0.471386075
11.56244351,-8.099704742,2.565704107,-0.589232564
11.5672206,-8.099704742,1.875972986,-0.1806581169
11.57198435,-7.899903774,1.245464206,0.3176472187
11.57677471,-7.676175117,0.6628118753,0.8015955687
11.58155179,-7.560122967,-0.01674975827,1.53080833
11.58631554,-7.454240799,-0.7728816867,2.106880426
11.59110596,-7.281359196,-1.664208174,2.691925526
11.59588304,-6.981060028,-2.670390129,3.022135019
11.60064679,-6.786045074,-3.662813187,3.242872953
11.60543716,-6.634698868,-4.736592293,3.377469063
11.61021424,-6.486942291,-5.907280922,3.602992773
11.61497799,-6.281159401,-7.241279602,3.851846218
11.61976836,-6.160321712,-8.840283394,4.025325775
11.62454544,-5.839085579,-10.75753212,4.250251293
11.62930919,-5.214558601,-13.10668564,3.970290899
11.63409956,-4.076771736,-15.39661694,2.905484915
11.63887664,-2.674577475,-17.01655769,1.791027784
11.64364039,-1.272383451,-18.26082611,0.8967102766
11.64843075,0.1124626622,-19.05225182,0.5395814776
11.65320784,1.207777262,-19.09831429,1.460219979
11.65797159,1.534397483,-18.53899193,3.113660574
11.662762,1.387837172,-17.58605003,4.558925152
11.66753903,1.566102386,-16.57926941,5.507679462
11.67230278,2.142772675,-15.66760445,6.036493301
11.6770932,2.608176708,-14.68894005,6.464808464
11.68187023,3.303889751,-13.64626789,6.431907177
11.68663403,3.870390654,-12.67657661,6.101697922
11.6914244,4.306482315,-11.81755257,5.557330608
11.69620148,4.51346159,-11.03569794,4.864010334
11.70096523,4.487140656,-10.33280659,4.048057556
11.7057556,4.33340168,-9.735198975,3.318845034
11.71053268,4.152145386,-9.171689034,2.738585472
11.71529643,4.023531437,-8.679964066,2.124826431
11.72008679,3.84706068,-8.246863365,1.60678041
11.72486388,3.695714474,-7.79461956,1.161715388
11.72962763,3.491726398,-7.317251682,0.7250252366
11.73441799,3.299702406,-6.725028038,-0.03230310604
11.73919508,3.087339401,-6.166304111,-1.005583763
11.74395883,2.584846735,-5.603392601,-1.901097536
11.74874924,2.250449657,-5.170291424,-2.734996319
11.75352627,1.908276081,-4.828716278,-3.318246841
11.75829008,1.548754454,-4.617549419,-3.600599766
11.76308044,1.219741344,-4.608576298,-3.689732552
11.76785752,0.9164510965,-4.725226402,-3.606581926
11.77262127,0.6149554253,-4.937589645,-3.278167009
11.77741164,0.4743770957,-5.261219025,-2.970091105
11.78218872,0.5120640397,-5.728417397,-2.639283419
11.78696581,0.5533402562,-6.186044693,-2.288136721
11.79174284,0.8626125455,-6.686742783,-1.785643935
11.79651992,1.633699656,-7.176673412,-1.174875975
11.801297,2.566302299,-7.535596848,-0.536590457
11.80607403,3.3852458,-7.852645874,0.1794617027
11.81085112,4.031906128,-8.029116631,0.7657032609
11.81561487,4.115056515,-8.115856171,1.121037364
11.82040528,3.611367464,-8.170292854,1.210170031
11.82518232,2.959323406,-8.24865818,1.050449133
11.8299594,2.471785784,-8.370093346,0.6640082598
11.83473648,2.107478619,-8.525029182,0.08075776696
11.83951356,1.808973908,-8.756534576,-0.604187727
11.84427732,1.49431777,-9.036494255,-1.585843205
11.84906768,1.160519004,-9.258428574,-2.654238462
11.85384476,0.8021938205,-9.34038353,-3.693919897
11.85860851,0.4683950245,-9.340981483,-4.607978344
11.86339888,0.2542374134,-9.345767021,-5.370690346
11.86817596,0.237487644,-9.360123634,-5.840879917
11.87293971,0.4510470629,-9.431908607,-5.894718647
11.87773008,0.9499505758,-9.561120987,-5.402395248
11.88250716,1.725823283,-9.732806206,-4.619344234
11.88727091,2.641077995,-9.937990189,-3.602394581
11.89206133,3.528815269,-10.19701385,-2.502892494
11.89683836,4.350151539,-10.53260708,-1.417747378
11.90160211,5.038087845,-10.96510983,-0.4271188378
