Time (s),Acceleration x (m/s^2),Acceleration y (m/s^2),Acceleration z (m/s^2)
9.003996732,0.12260281784830235,0.24965710930613486,0.33219625688927423
9.008996698,-0.0004458980560000535,0.05756219131457218,0.591436865841772
9.013996698,-0.11808687177707734,-0.12900371715431375,0.8461138896138514
9.018996698,-0.22810365017449707,-0.30945610664059453,1.0929883720297502
9.023996864,-0.328473895644173,-0.48324110235099804,1.3289268478755096
9.028996864,-0.41741553500337303,-0.6498222631722852,1.5509562724595627
9.033996864,-0.493427448778138,-0.8086704547180331,1.7563166170073348
9.03899683,-0.5553236701080652,-0.9592575763428035,1.9425100348631479
9.043996796,-0.6022601994080933,-1.1010547102428763,2.107345515935733
9.048996096,-0.6337536935972509,-1.2335350109437686,2.248978011598923
9.053996096,-0.6496914588039558,-1.3561813739056492,2.3659411305420335
9.058996129,-0.6503323659551105,-1.4684986251312246,2.4571726656760657
9.063995495,-0.636298521416978,-1.5700296761520351,2.5220323927316644
9.068994628,-0.6085577586079013,-1.6603748099445073,2.560311760986706
9.073993728,-0.5683972660175338,-1.739213022530121,2.572235260047974
9.078992828,-0.51738892377676,-1.8063241586112928,2.558453390715302
9.083992128,-0.4573471738940843,-1.8616104595667693,2.5200273037277636
9.088992128,-0.39028048581510705,-1.9051160967566092,2.458405316515487
9.093991461,-0.3183376859289523,-1.9370432979853554,2.3753916900651677
9.098991494,-0.24375058627019106,-1.9577637923689495,2.273108246530644
9.103991494,-0.16877446808801272,-1.9678244955455444,2.1539496170415955
9.108990827,-0.09562804900888881,-1.967946623842092,2.0205331020550252
9.113990793,-0.02643458901222264,-1.9590177486598996,1.8756442799285566
9.118990759,0.036834229309323376,-1.942076663918194,1.7221796015233695
9.123990725,0.09241007713411702,-1.9182913203167282,1.5630872613864308
9.128990058,0.13877395644115778,-1.8889304587086047,1.4013076501202342
9.133990058,0.17469508034951617,-1.8553299283694835,1.2397146807283264
9.138990091,0.19926156112292454,-1.818854982592421,1.0810592529746368
9.143990457,0.21190204975455076,-1.7808600842954454,0.9279160760144026
9.14899049,0.21239773983661528,-1.7426479124575087,0.7826350057612679
9.15399049,0.20088443536493975,-1.7054293259267341,0.6472979608193143
9.15899049,0.1778446762607272,-1.6702860107330884,0.5236823515382826
9.163990456,0.14409020793872634,-1.6381374134768087,0.41323178911567254
9.168990456,0.10073536609472984,-1.6097133558455003,0.31703464268648435
9.173990456,0.04916222032958139,-1.5855334477339451,0.23581079637782812
9.178990489,-0.009021425288825389,-1.5658940856199972,0.16990674251418716
9.183990489,-0.07202984861618024,-1.5508634575766165,0.11929894624706067
9.188990489,-0.1379515270268546,-1.5402845970565544,0.08360523918680693
9.193990489,-0.20480390240373422,-1.5337861561546986,0.0621038458937533
9.198991155,-0.2705890640977583,-1.5308002275437815,0.05375951267055405
9.203991155,-0.3333486130440968,-1.5305862533502959,0.057256086757770955
9.208991121,-0.3912160316732881,-1.53225983585418,0.071034780879821
9.213991787,-0.4424650113537085,-1.534825120478376,0.09333725092244373
9.218992687,-0.4855523753472109,-1.537209360909207,0.12225251463951031
9.22399362,-0.5191544705262084,-1.5382982971833006,0.1557666515185988
9.22899452,-0.5421961721164953,-1.5369710713843328,0.19181415502191812
9.233995186,-0.5538719377559479,-1.5321335582269817,0.22832976434086047
9.238995152,-0.5536586457075489,-1.5227491821114563,0.26329958703625145
9.243995785,-0.5413202434528489,-1.5078665096550172,0.29481033770689236
9.248995751,-0.5169045040470681,-1.486643128972619,0.3210955615246542
9.253995751,-0.4807324267122698,-1.4583655376805553,0.34057778548802875
9.258996417,-0.43338101597110423,-1.422464946981449,0.35190564409887964
9.26399645,-0.37566032432945656,-1.3785290585904155,0.35398515660487573
9.268996483,-0.3085857447127441,-1.326309978490624,0.34600448321422334
9.273996516,-0.23334659172757055,-1.2657284965650888,0.32745164934773635
9.278997182,-0.15127202030280112,-1.1968749899429625,0.29812489303624296
9.283997182,-0.06379530527874856,-1.120007209348316,0.2581354569831797
9.288997148,0.027582541916417323,-1.0355451908746651,0.2079028115351086
9.293996814,0.12132890132007894,-0.9440635088098315,0.14814245594638922
9.298996814,0.21591455982109398,-0.8462810564740335,0.07984660067037397
9.303996847,0.3098468185985726,-0.743048518885698,0.004258180839841963
9.308996947,0.4016999644621153,-0.6353336893314049,-0.077161211248674
9.313996947,0.4901424553809142,-0.5242047854822892,-0.16276876051624764
9.318996913,0.5739602663857394,-0.41081194096477647,-0.25078240223624126
9.323996879,0.6520759587576435,-0.29636708390649746,-0.33932640480127385
9.328996845,0.7235631717739954,-0.18212246126922493,-0.426479546120802
9.333996845,0.7876563867285039,-0.06934812154097941,-0.5103247971462499
9.338996878,0.8437559701454449,0.040691277576557904,-0.588999374799695
9.343996911,0.8914286607774675,0.14675992223073522,-0.6607439973146804
9.348996944,0.9304038183172293,0.2476741075583826,-0.723950169824302
9.353996944,0.9605658952597843,0.34232485068944507,-0.7772043487162715
9.358996944,0.9819437184973648,0.429699393705998,-0.8193278810645355
9.36399691,0.9946972625165573,0.5089011652096608,-0.849411690736121
9.368997276,0.999102649668957,0.5791678091619025,-0.8668447850858375
9.373996609,0.9955361165712102,0.6398869336243732,-0.8713357842563897
9.378996175,0.9844576377466936,0.6906092725037077,-0.8629268268924982
9.383996208,0.9663948047256884,0.731058988248907,-0.8419993784662013
9.388996208,0.941927434275851,0.7611408752832424,-0.8092716573413952
9.393996208,0.9116732399771446,0.7809442572837606,-0.7657875940617589
9.398996208,0.8762747632085067,0.7907434099329348,-0.7128974450291381
9.403996208,0.8363876353904901,0.7909943863681281,-0.6522303867740392
9.408996208,0.7926701413420676,0.7823281762863938,-0.58565961717742
9.413996174,0.7457739790995582,0.7655401929794038,-0.5152606826294908
9.418996174,0.6963360673795269,0.7415761572109266,-0.4432639316032177
9.423996174,0.6449712380987233,0.7115145332804714,-0.37200215920476065
9.428996207,0.5922656648528215,0.6765457686073134,-0.3038546465254391
9.433996207,0.5387709126419297,0.6379486884857153,-0.2411889073364088
9.438996207,0.4849985404778816,0.5970644951120943,-0.18630152992347768
9.443996173,0.43141523747479477,0.5552689073587577,-0.14135954273972148
9.448996173,0.378438517542544,0.5139430495760401,-0.1083437388874282
9.453996173,0.32643303406133456,0.47444375067639594,-0.08899536611202663
9.458996106,0.2757076023294679,0.43807394717936443,-0.0847675261332504
9.463996106,0.22651303333045136,0.40605389474277587,-0.09678253088768703
9.468996106,0.17904088678865243,0.3794938813519005,-0.12579633612205757
9.473996106,0.13342324420198665,0.3593691019548327,-0.17217101815363114
9.478996106,0.08973358386451087,0.3464973003134712,-0.23585608092384758
9.483996106,0.04798881107375688,0.34151971174803253,-0.31637918062139236
9.488996072,0.00815245987904146,0.34488575357124074,-0.41284663663823856
9.493996038,-0.029860959513527158,0.35684181202795295,-0.5239538632974264
9.498996038,-0.06618053841435921,0.3774243694784068,-0.648005610959941
9.503996071,-0.10097258755076789,0.40645760729858926,-0.7829456543436942
9.508996104,-0.13443345053948755,0.44355551162746903,-0.92639531893472
9.513996104,-0.1667816997379099,0.48812840271446634,-1.0757000030848636
9.518995704,-0.1982499201418983,0.5393937057662265,-1.2279826429298526
9.523996337,-0.2290762919123577,0.5963906836295874,-1.3802028865394391
9.52899677,-0.25949617469345165,0.6579987613844254,-1.5292205967005905
9.533996736,-0.2897338806555878,0.7229589918064004,-1.671862189853645
9.538996736,-0.3199948024927531,0.7898981404743213,-1.8049882420800656
9.543996769,-0.35045804189644736,0.8573548123463406,-1.9255607519221618
9.548996802,-0.3812696670507214,0.9238070008907919,-2.030708445224544
9.553996835,-0.41253671630300176,0.987700419037795,-2.117788540646561
9.558996835,-0.44432205882974385,1.0474769694472859,-2.1844434672500967
9.563996835,-0.4766402198093155,1.1016027290183288,-2.22865113799247
9.568996801,-0.5094542753851128,1.1485948570946882,-2.248767534506708
9.573996801,-0.5426739201373941,1.1870468861455035,-2.243560547931057
9.578996801,-0.5761548052074469,1.2156519159264871,-2.212234245437652
9.583996834,-0.6096992363531939,1.2332233058411763,-2.154442988576397
9.588996834,-0.6430583060175946,1.2387125441200364,-2.070295111757692
9.593996834,-0.6759355107894692,1.2312240647343162,-1.9603461695168378
9.5989968,-0.7079918746108549,1.2100268809400256,-1.8255820704491792
9.603996766,-0.7388525576896632,1.174563004462685,-1.667392723378598
9.608996732,-0.7681148805239421,1.124452717845245,-1.487537115648795
9.613996732,-0.7953576320978029,1.059496860879185,-1.2881010113111044
9.618996732,-0.8201514631024674,0.9796763767871789,-1.0714486847033229
9.623996765,-0.842070092608175,0.8851494358980657,-0.8401702798796215
9.628996798,-0.8607019854745449,0.7762465096842922,-0.5970264988363537
9.633996831,-0.875662095375461,0.6534638027531732,-0.34489236515118304
9.638996831,-0.8866032234158594,0.517455462849556,-0.08670178116490918
9.643996831,-0.8932265232560823,0.36902497883229635,0.1746055042538213
9.648996797,-0.8952906957698515,0.20911614461686334,0.4361330710373736
9.653996797,-0.892619460337034,0.03880391452867518,0.6950719337182014
9.658996797,-0.8851069625199229,-0.14071459575165926,0.9487386513301688
9.66399683,-0.8727208730732638,-0.3281287957948002,1.1946068391703089
9.66899683,-0.8555030438810763,-0.5220229273290139,1.4303318233209033
9.67399683,-0.833567705215042,-0.7208840310760352,1.6537685197423804
9.67899683,-0.8070973086020686,-0.9231097214936753,1.862982937805502
9.68399683,-0.7763362337795946,-1.1270160213035947,2.056257985815541
9.68899683,-0.7415826801554417,-1.33084560150957,2.232094479359658
9.693996796,-0.7031791467452142,-1.532776850679012,2.3892084103622153
9.698996796,-0.6615019646765956,-1.7309342530183665,2.526525615415995
9.703996796,-0.6169503799669717,-1.923400580283553,2.643174979856314
9.708996829,-0.5699356906650532,-2.1082313891229005,2.738481230015165
9.713996829,-0.5208709222506437,-2.2834722558262497,2.8119582099989384
9.718996829,-0.4701614788223177,-2.447179071803445,2.8633033280399154
9.723996795,-0.41819713448653656,-2.5974415682602383,2.8923936105034693
9.728996795,-0.36534562945619703,-2.7324100449649733,2.899283537841554
9.733996795,-0.31194801273681366,-2.8503250563630256,2.8842045740244995
9.738996828,-0.25831573880254255,-2.9495495717379234,2.8475660573901047
9.743996861,-0.204729395948555,-3.0286028898239468,2.789956914476307
9.748996861,-0.15143883661555285,-3.0861953687200696,2.7121475043354972
9.753996861,-0.09866440783850279,-3.1212628458086895,2.6150908081994952
9.758996861,-0.04659894826718995,-3.1329994850579923,2.4999221507663356
9.763996861,0.004589774804386454,-3.1208877130436945,2.367956672395889
9.768996861,0.05475647543996103,-3.084723898042391,2.2206838602208667
9.773996827,0.10377583031388643,-3.0246384906054207,2.0597585815054784
9.778996827,0.15154018096171437,-2.9411094758095153,1.8869882324183656
9.783996827,0.19795753258674875,-2.8349681800593354,1.7043158060353791
9.78899686,0.24294986050996797,-2.707396719733461,1.513798881774804
9.79399686,0.2864516863943558,-2.55991666379523,1.317584734031115
9.79899686,0.32840885569167544,-2.3943687944150795,1.1178819430850881
9.803996826,0.3687774360443366,-2.212884173960911,0.9169290608188767
9.808996826,0.40752266295027945,-2.0178470477793047,0.7169610314209484
9.813996826,0.44461788183410894,-1.8118504141275216,0.5201741863442765
9.818996859,0.48004347059641234,-1.5976453610647572,0.32869071718074216
9.823996859,0.5137857669879988,-1.3780854943992669,0.14452357585559786
9.828996859,0.5458360626194222,-1.1560679543115842,-0.03045724319696065
9.833996859,0.5761897526151768,-0.9344726368429137,-0.19455611947801688
9.838996859,0.6048457415165608,-0.7161012968818069,-0.34628007580993786
9.843996859,0.6318061993858471,-0.5036182099423208,-0.4843631622907969
9.848996825,0.6570767374711038,-0.2994940121794986,-0.6077863493220094
9.853996825,0.6806670327288613,-0.1059542264314173,-0.7157924722579518
9.858996825,0.7025918779644017,0.0750661761298181,-0.8078959223223706
9.863996858,0.7228725722131056,0.24196102523946364,-0.8838869246806288
9.868996891,0.7415384980035645,0.3934830824946693,-0.9438303781513474
9.873996891,0.7586286646274616,0.5287653664573468,-0.9880593502285113
9.878996857,0.774192939880152,0.6473332310633225,-1.017163430116594
9.883996823,0.7882926604937578,0.7491069971624689,-1.0319722495255874
9.888996789,0.8010003152076316,0.8343951658692964,-1.0335345922848787
9.893996755,0.8123980382079801,0.9038784618820855,-1.023093627732376
9.898996755,0.8225747317351092,0.9585851727928079,-1.0020589087576317
9.903996788,0.8316217499968389,0.9998584724592942,-0.9719758582944944
9.908996821,0.8396272160989897,1.0293166408035004,-0.934493513441795
9.913996854,0.8466691989195253,1.0488073085387963,-0.891331293346278
9.918996854,0.8528081299157803,1.060357047024017,-0.8442455017799873
9.923996854,0.8580789669854078,1.066117771687943,-0.7949961761034621
9.92899682,0.8624836882769122,1.068311514029118,-0.7453147726026808
9.93399682,0.8659847034030628,1.0691751285600204,-0.6968730633601815
9.93899682,0.8684996970823161,1.0709064321283084,-0.6512535374078294
9.943996853,0.869898283653835,1.075613129613058,-0.6099215595219578
9.948996853,0.8700006777247128,1.085265678704643,-0.5741995356246861
9.953996853,0.8685784083492555,1.1016550108625238,-0.5452433442367268
9.958996819,0.8653569478721794,1.1263557794577264,-0.5240212992297163
9.963996785,0.8600200078950357,1.160695568313597,-0.5112959013994216
9.968996751,0.8522151803080507,1.205730276467817,-0.5076086184004749
9.973996751,0.8415605707275583,1.2622257051704642,-0.5132679132145039
9.978996784,0.8276520800872915,1.3306452156027084,-0.528340727324991
9.983996817,0.8100710299745997,1.4111432038135017,-0.5526476178226044
9.98899685,0.7883918904976392,1.5035640542627082,-0.5857617461836951
9.993996883,0.762189948700698,1.6074461838993865,-0.6270119183966997
9.998996883,0.7310488438703856,1.7220307717435097,-0.6754898790796751
10.00399685,0.6945679855319981,1.8462747807071846,-0.7300620607563577
10.00899682,0.6523699509648182,1.9788679140692789,-0.7893859727821801
10.01399682,0.6041080218204412,2.1182532002920387,-0.851931368553825
10.01899682,0.5494740557139637,2.262650954043766,-0.9160062431830797
10.02399685,0.48820689297186476,2.410085904784743,-0.9797875835232395
10.02899685,0.4201014685135597,2.558417308024761,-1.041356624858391
10.03399685,0.34501873464234906,2.705371856303717,-1.0987381771175593
10.03899685,0.2628964060758189,2.848579190045816,-1.1499433837262476
10.04399618,0.17376042096762773,2.9856097769448793,-1.1930150827061137
10.04899551,0.0777368812735714,3.114014885619524,-1.2260747652474198
10.05399548,-0.024935895167215488,3.231368326725678,-1.2473699831602088
10.05899481,-0.13389569852430522,3.335309573386661,-1.255320952373971
10.06399391,-0.24864571532561122,3.4235878025562236,-1.2485650394315528
10.06899328,-0.3685454464452558,3.4941063182314522,-1.2259978012286754
10.07399238,-0.49280396996743886,3.5449667235850852,-1.1868092730018898
10.07899148,-0.6204762862324663,3.5745120997698034,-1.1305142667842438
10.08399054,-0.7504634750727781,3.581368325117389,-1.0569755583748883
10.08898984,-0.8815173547943569,3.5644825364745065,-0.9664190138741564
10.09398891,-1.0122502502801907,3.5231576090030967,-0.8594399420255641
10.09898874,-1.1411503409973773,3.457081433513463,-0.7370002517955624
10.10398924,-1.2666028572074204,3.3663497259845125,-0.6004163300662312
10.10898928,-1.3869171222053727,3.2514811335188027,-0.45133790595641576
10.11398931,-1.5003591132077416,3.113423516026325,-0.2917185037538132
10.11898934,-1.6051888611964866,2.953550482842859,-0.1237783739887588
10.12398934,-1.6997016649339516,2.773647537333173,0.05003899012047052
10.12898931,-1.7822717891663264,2.575887512752556,0.22711550163246277
10.13398861,-1.851397078596355,2.362795349433036,0.4047109708276399
10.13898861,-1.9057427677562213,2.137202648150439,0.5800180950792938
10.14398861,-1.9441827151601987,1.9021928208461438,0.7502186280749454
10.14898864,-1.9658363414000875,1.661038031813704,0.9125394668929081
10.15398864,-1.9700996983965244,1.4171294632189888,1.0643074800810803
10.15898864,-1.9566693262742303,1.173902731555722,1.2030020012075568
10.16398861,-1.925557847109617,0.9347605119006704,1.326304019502933
10.16898824,-1.8771005824243985,0.7029945841736908,1.4321412039980819
10.17398821,-1.8119528454219964,0.48170959336465086,1.518727997375538
10.17898821,-1.731077931338557,0.2737508102514778,1.5846001132647567
10.18398824,-1.6357261921291388,0.0816380899108705,1.6286428713474301
10.18898827,-1.5274059188866373,-0.09249194505658971,1.6501129142686555
10.19398897,-1.4078470534059289,-0.24693371594469637,1.648652973490507
10.19898964,-1.2789589987990613,-0.38044902825881605,1.6242994888342825
10.20398964,-1.142783990845823,-0.49229084878247026,1.5774830340255468
10.20899027,-1.00144762232141,-0.5822138460687992,1.5090216483042698
10.21399117,-0.8571081792715369,-0.6504714682419583,1.4201073096933032
10.21899184,-0.711906449794627,-0.6977997883853869,1.3122858979434864
10.22399277,-0.5679176023018949,-0.7253887931219091,1.187431079660871
10.22899367,-0.4271066034140419,-0.7348422043879901,1.0477126087509239
10.23399457,-0.2912884605572476,-0.7281272898297833,0.8955595835150824
10.23899524,-0.1620943393352265,-0.7075164188032524,0.7336192502941812
10.24399614,-0.04094433270310165,-0.6755223476224899,0.5647119998777053
10.2489963,0.07097263693037828,-0.6348293623305935,0.391783265875679
10.2539958,0.17271160228557073,-0.5882224664539978,0.21785309635982508
10.2589951,0.2635771291451237,-0.5385167752231486,0.04596422253736119
10.2639951,0.34312205209430985,-0.4884891704625292,-0.1208705149960314
10.2689951,0.4111399510357787,-0.44081408912464515,-0.27972050349016014
10.27399514,0.46765212640625037,-0.3980050740578014,-0.4277885808581119
10.27899514,0.5128899619519521,-0.3623634216660874,-0.5624602867211143
10.2839958,0.5472736515691882,-0.33593493266026975,-0.6813503226539332
10.28899577,0.5713883115579924,-0.320475424374878,-0.7823454543646727
10.29399577,0.5859585018866569,-0.3174253114404401,-0.8636431478308845
10.29899577,0.5918221404468746,-0.3278932211651726,-0.923785293438509
10.3039958,0.5899047145254919,-0.35264829517708146,-0.9616864356179614
10.3089958,0.581194576794125,-0.39212055250882133,-0.9766559928714884
10.3139958,0.5667199638994644,-0.4464084624142675,-0.9684140290841119
10.31899613,0.5475282020654598,-0.5152927068784304,-0.9371002259598115
10.32399613,0.5246673771008821,-0.5982550092139238,-0.8832758106597257
10.32899613,0.49917055920407355,-0.6945008682461283,-0.807918311543792
10.33399543,0.4720424998302846,-0.8029850644581504,-0.7124091437391118
10.33899543,0.4442485712918668,-0.9224388880940266,-0.5985141568098743
10.34399543,0.4167056099207625,-1.0513981698185764,-0.46835739991674086
10.34899547,0.39027425763024076,-1.1882313604681167,-0.3243884693509669
10.35399547,0.36575237816533435,-1.3311670946123866,-0.16934389775332137
10.35899547,0.34386915292272147,-1.4783208690907605,-0.0062031258943138785
10.36399543,0.3252795323305709,-1.6277206587186628,0.16186032930457978
10.3689954,0.3105588237199965,-1.777331465068557,0.33153182826951605
10.37399536,0.3001973237444936,-1.9250789411218985,0.49941193368726844
10.37899537,0.2945950392917803,-2.068872347192699,0.6620752878937486
10.38399536,0.29405667131915697,-2.2066271656244685,0.8161311541996399
10.3889954,0.29878714764964787,-2.336287728825649,0.9582846652638258
10.39399543,0.3088880722441707,-2.455850196381579,1.0853977590449226
10.39899546,0.3243555018185026,-2.563386156185244,1.194548733198982
10.40399546,0.34507946188855876,-2.6570670285793323,1.2830893197524704
10.40899613,0.37084557367860005,-2.7351893283416557,1.3486981785371777
