Time (s),Acceleration x (m/s^2),Acceleration y (m/s^2),Acceleration z (m/s^2)
10.00399685,0.758961916,0.6033388376,7.503727436
10.00899682,0.4046200812,0.2944868207,7.898770809
10.01399682,-0.107739076,-0.01197100803,8.233959198
10.01899682,-0.5267243981,-0.08619125932,8.269871712
10.02399685,-0.8930372596,-0.07422025502,8.181286812
10.02899685,-1.218648672,-0.05506663769,8.085518837
10.03399685,-1.33835876,-0.03351882473,7.834127426
10.03899685,-1.261744261,-0.0143652102,7.520486832
10.04399618,-1.130063176,-0.02154781483,6.996156693
10.04899551,-1.120486379,-0.0359130241,6.783072472
10.05399548,-1.072602391,-0.2609679997,6.682516098
10.05899481,-1.04147768,-0.5099649429,6.663362503
10.06399391,-1.070208192,-1.022324085,6.510133743
10.06899328,-1.163581967,-1.458068848,6.04087019
10.07399238,-1.163581967,-1.838746905,5.320215225
10.07899148,-0.8188169599,-1.915361404,4.582501888
10.08399054,-0.08379705995,-1.611297727,4.034229755
10.08898984,0.8714894056,-0.8906430602,3.79241538
10.09398891,1.927332401,0.1125274822,4.09408474
10.09898874,2.252943754,0.720654726,4.675876141
10.10398924,2.138022184,1.491587639,6.136638165
10.10898928,1.623268723,1.754949808,7.278672218
10.11398931,0.9576807022,1.805228114,7.999327183
10.11898934,0.07661445439,1.685518026,8.41591835
10.12398934,-0.9983820915,1.477222443,8.724770546
10.12898931,-2.04704237,1.26653266,8.976161003
10.13398861,-3.134010077,0.8930372596,9.24191761
10.13898861,-3.627215624,0.3399766386,9.455001831
10.14398861,-4.149151325,-0.5195417404,9.313743591
10.14898864,-4.314351559,-1.086967587,9.098265648
10.15398864,-4.431667328,-2.08295536,8.813355446
10.15898864,-4.438849926,-2.655169725,8.770259857
10.16398861,-4.180276394,-3.627215624,8.820538521
10.16898824,-3.828328609,-4.381389141,8.911518097
10.17398821,-3.447650433,-5.061641693,9.184456825
10.17898821,-2.916137695,-5.722441196,9.517251015
10.18398824,-2.387019157,-6.572382927,9.845256805
10.18898827,-1.975216389,-6.993762493,9.912294388
10.19398897,-1.357512355,-7.597101212,9.754277229
10.19898964,-0.988805294,-7.831733227,9.476549149
10.20398964,-0.3758896589,-7.975385189,8.839692116
10.20899027,0.1316810995,-7.939472198,8.408735275
10.21399117,0.7254431248,-7.738358974,8.236352921
10.21899184,1.206677675,-7.381623268,8.394370079
10.22399277,1.606509328,-6.981791496,8.74871254
10.22899367,1.948880196,-6.59871912,9.002497673
10.23399457,2.092532396,-6.036081791,8.966584206
10.23899524,1.948880196,-5.676951408,8.770259857
10.24399614,1.63523972,-5.143044472,8.403946877
10.2489963,1.290474772,-4.848258495,8.226776123
10.2539958,0.9361328483,-4.434061527,7.951443195
10.2589951,0.7781155705,-4.276044369,7.685686588
10.2639951,0.6153098345,-4.23294878,7.360075474
10.2689951,0.4955997467,-4.244919777,7.149385452
10.27399514,0.3327940404,-4.326322556,7.089530468
10.27899514,0.1388636976,-4.534617901,7.149385452
10.2839958,-0.05746084079,-4.934749126,7.27388382
10.28899577,-0.2130839527,-5.22684145,7.27388382
10.29399577,-0.5051765442,-5.842151642,7.173327446
10.29899577,-0.7038952708,-6.241982937,7.015310287
10.3039958,-0.8092401624,-7.015310287,6.74955368
10.3089958,-0.8116343617,-7.664138794,6.639420509
10.3139958,-0.5793967843,-8.298602104,6.376058578
10.31899613,-0.3543418646,-8.870816231,6.318597794
10.32399613,0.1316810995,-9.316138268,6.668150902
10.32899613,0.4932055473,-9.672874451,6.924330711
10.33399543,1.070208192,-10.00327396,7.328950882
10.33899543,1.470039845,-10.12777233,7.448660851
10.34399543,2.018311977,-10.1636858,7.71681118
10.34899547,2.312798738,-10.08946514,7.783848763
10.35399547,2.482787132,-9.986514091,7.731176376
10.35899547,2.595314741,-9.8644104,7.75511837
10.36399543,2.49236393,-9.713575363,7.747935772
10.3689954,2.233790159,-9.567529678,7.702445984
10.37399536,1.800439715,-9.107842445,7.735964775
10.37899537,1.505952835,-8.961795807,7.692869186
10.38399536,0.8307880163,-8.954613686,8.126219749
10.3889954,0.490811348,-8.933065414,8.380004883
10.39399543,0.06943184882,-8.889969826,8.719982147
10.39899546,-0.2059013397,-8.861239433,8.897152901
10.40399546,-0.4596867263,-8.873210907,8.952219009
10.40899613,-0.6272808313,-9.028834343,9.033622742
10.4139961,-0.7781155705,-9.179668427,9.086295128
10.4189961,-0.8834604025,-9.567529678,9.174880028
10.4239961,-0.8212111592,-10.03918743,9.301773071
10.42899613,-0.8140285611,-10.39113426,9.364022255
10.43399613,-0.4070142806,-10.95855999,9.557952881
10.43899613,0.1340752989,-11.28417206,9.687239647
10.4439961,1.091755986,-11.70076275,9.519645691
10.44899606,1.879448295,-11.91863537,9.143755913
10.45399603,2.79163909,-11.94975948,8.832509041
10.45899603,3.615244627,-11.91863537,8.552388191
10.46399606,3.957615376,-11.77498341,8.334515572
10.46899609,4.192247391,-11.65527344,8.200440407
10.47399613,3.691859007,-11.34402657,7.958625793
10.47899613,3.315969467,-11.06629944,7.723993778
10.48399679,2.583343744,-10.52521038,7.252336025
10.48899676,2.063801765,-10.33846188,6.993762493
10.49399672,1.211466074,-10.07031155,6.699275494
10.49899672,0.6751648784,-9.792584419,6.555623531
10.50399676,0.3327940404,-9.390357971,6.471826553
10.50899679,0.1053448766,-8.945036888,6.411971569
10.51399679,-0.04070143029,-8.470984459,6.402394772
10.51899679,-0.1340752989,-8.032846451,6.313809395
10.52399679,-0.215478152,-7.530063629,5.913977623
10.52899679,-0.2896983922,-7.362469673,5.547664642
10.53399679,0.0359130241,-7.15656805,5.375282288
10.53899676,0.5410895944,-7.051223278,5.363311291
10.54399676,1.11569798,-7.012916088,5.131073475
10.54899676,1.56101954,-7.04404068,4.929960728
10.55399679,2.039859772,-7.187692642,4.75249052
10.55899679,2.26970315,-7.350498676,4.606443882
10.56399679,2.343923569,-7.455843449,4.486733913
10.56899676,2.248155355,-7.45105505,4.486733913
10.57399676,1.872265697,-7.364863873,4.596867085
10.57899676,1.707065821,-7.314585686,4.728548527
10.58399679,1.347935557,-7.247547626,5.025728703
10.58899679,1.091755986,-7.170933247,5.475838661
10.59399679,0.8236053586,-7.067982674,6.009745598
10.59899679,0.6153098345,-7.029675484,6.656179905
10.60399679,0.4740519226,-7.046434879,7.27388382
10.60899679,0.4118026793,-7.125443459,7.795820236
10.61399675,0.5075707436,-7.314585686,8.403946877
10.61899672,0.5626373887,-7.498939037,8.751106262
10.62399672,0.5363011956,-7.874828815,9.373599052
10.62899675,0.4812345505,-8.116642952,9.680056572
10.63399679,0.2466027737,-8.600272179,10.15171432
10.63899679,0.09816227108,-8.911518097,10.41028786
10.64399679,0.01675941236,-9.397541046,10.56591129
10.64899675,-0.04788403213,-9.708786964,10.65928555
10.65399672,-0.1460463107,-9.83807373,10.55872917
10.65899668,-0.2657563984,-9.87638092,10.32649136
10.66399668,-0.4884171486,-9.742305756,9.857227325
10.66899672,-0.5698199868,-9.639355659,9.541193008
10.67399675,-0.6272808313,-9.457395554,9.007286072
10.67899678,-0.6272808313,-9.275436401,8.770259857
10.68399678,-0.7134721279,-8.904335022,8.38958168
10.68899678,-0.7038952708,-8.681674957,8.205228806
10.69399675,-0.5434837937,-8.368034363,8.025663376
10.69899675,-0.6081272364,-8.059182167,7.831733227
10.70399675,-0.7038952708,-7.666532993,7.520486832
10.70899678,-1.130063176,-7.209240437,7.115866661
10.71399678,-1.422155857,-6.828562737,6.706458092
10.71899678,-1.455674648,-6.608295918,6.517316341
10.72399675,-1.589749932,-6.347328186,6.309020519
10.72899671,-1.680729628,-6.210858345,6.189310551
10.73399668,-1.673547029,-6.002563,5.983409405
10.73899668,-1.503558636,-5.870882034,5.808632374
10.74399668,-1.233013868,-5.772719383,5.770325184
10.74899671,-1.086967587,-5.696105003,5.861305237
10.75399675,-0.8930372596,-5.743988991,6.057629585
10.75899678,-0.6967126727,-5.78469038,6.287472725
10.76399678,-0.5123591423,-5.894824028,6.490980148
10.76899678,-0.4189853072,-5.990592003,6.581959724
10.77399674,-0.1915361285,-6.119878769,6.744765282
10.77899674,-0.02633621916,-6.119878769,6.838139534
10.78399675,0.3064578176,-6.064812183,7.027281284
10.78899678,0.5554547906,-5.832574844,7.211634636
10.79399678,0.6823474765,-5.576395035,7.460631847
10.79899678,0.7110779285,-5.284302235,7.618649006
10.80399678,0.6081272364,-5.11191988,7.793426037
10.80899678,0.7469909191,-4.908412933,7.805397034
10.81399678,0.7757213712,-4.740519524,7.862857819
10.81899674,0.6703764796,-4.683058739,7.980173588
10.82399674,0.5626373887,-4.458003521,8.224382401
10.82899674,0.1795651317,-4.304774761,8.597877502
10.83399678,-0.1699883193,-4.311957359,8.997709274
10.83899678,-0.5267243981,-4.323928356,9.545981407
10.84399678,-0.7805097699,-4.46279192,10.18762779
10.84899674,-1.149216771,-4.61362648,10.87236881
10.85399671,-1.570596337,-4.982633114,11.61935997
10.85899668,-1.766920805,-5.214870453,12.02637482
10.86399668,-2.159569979,-5.653009415,12.4764843
10.86899668,-2.296039343,-6.002563,12.52436829
10.87399671,-2.439691544,-6.479009151,12.26579475
10.87899674,-2.521094322,-6.797437668,11.8779335
10.88399677,-2.348711967,-6.907571316,11.37754536
10.88899677,-2.04704237,-6.783072472,10.80772591
10.89399677,-1.364694953,-6.605901718,9.974543571
10.89899674,-0.8140285611,-6.467038155,8.597877502
10.90399674,-0.1675941199,-6.009745598,6.718429089
10.90899674,0.3256114423,-5.727229595,5.794267178
10.91399677,0.7158663273,-5.140650272,4.925172329
10.91899677,0.5770025849,-4.558559895,4.913201332
10.92399677,0.3950432837,-3.026270866,6.258742332
10.92899674,0.2346317619,-2.334346771,8.200440407
10.9339967,0.2035071403,-2.243366957,10.74787045
10.93899667,0.215478152,-2.487575531,13.02475643
10.94399667,0.1508347094,-2.882618904,14.52352715
10.9489967,0.6296750307,-3.411737442,15.00745487
10.95399674,0.7565677166,-4.065354347,13.97525501
10.95899677,0.7110779285,-4.5370121,12.74942303
10.96399677,0.5458779931,-5.107131481,9.929053307
10.96899677,0.2681505978,-5.351340294,8.004115105
10.97399674,-0.3806780577,-4.985027313,5.123890877
10.97899674,-0.4285621047,-4.182670593,3.596091032
10.98399674,-0.3208230138,-2.968810081,3.153163671
10.98899677,0.08379705995,-1.625662923,3.801992416
10.9939968,0.6631938815,-0.5243301988,4.95869112
10.9989968,1.163581967,0.05746084079,5.696105003
11.0039968,1.831564307,0.174776718,5.657797813
11.0089968,1.802833915,0.1005564705,5.494992256
11.0139968,1.742978811,-0.2322375625,5.087977886
11.0189968,1.774103403,-0.4764461517,4.951508522
11.02399677,1.656787634,-0.7733271718,4.683058739
11.02899677,1.611297727,-0.9337386489,4.273650169
11.03399677,1.640028119,-0.9074024558,3.866635799
11.0389968,1.742978811,-0.4165911078,3.960009575
11.0439968,1.575384736,0.2106897533,4.67827034
11.0489968,1.458068848,0.7182605267,5.207687855
11.05399677,1.043871999,0.9983820915,5.78469038
11.05899677,0.6584054828,1.029506683,5.854122639
11.06399677,-0.1771709323,0.8307880163,5.696105003
11.0689968,-0.7757213712,0.4955997467,5.454290867
11.07399613,-1.125274777,0.1053448766,5.210082054
11.07899523,-1.213860273,-0.04070143029,5.004180908
11.08399457,-0.9672574997,0.06943184882,4.963479519
11.08899367,-0.7637503147,0.3303998411,5.078401089
11.09399277,-0.6392518282,0.5075707436,5.131073475
11.09899273,-0.4477157295,0.5913678408,5.217264652
11.10399183,-0.4094084799,0.5458779931,5.583577633
11.10899093,-0.2585737705,0.4884171486,5.772719383
11.11399007,0.1029506698,0.423773706,5.966650009
11.11898943,0.2346317619,0.3543418646,6.036081791
11.12398943,0.3280056417,0.1915361285,6.100725174
11.1289894,0.3399766386,0.06943184882,6.064812183
11.1339887,0.2729389966,0.01675941236,5.988197803
11.1389887,0.282515794,-0.08379705995,5.856516838
11.1439887,0.1388636976,-0.2585737705,5.662586212
11.1489884,0.0143652102,-0.3423708379,5.588366032
11.1539884,-0.08379705995,-0.457292527,5.614702225
11.1589884,-0.1029506698,-0.490811348,5.736806393
11.1639884,-0.06464344263,-0.5291185975,6.218040943
11.16898776,-0.1101332754,-0.5889736414,6.687304497
11.17398776,-0.4094084799,-0.7230489254,7.063194275
11.17898773,-0.7278373241,-1.00317049,7.166144848
11.18398773,-0.9768342972,-1.388636947,7.04404068
11.18898773,-1.149216771,-1.766920805,6.936301708
11.19398776,-1.403002143,-2.224213362,6.89320612
11.19898776,-1.436521053,-2.511517525,6.919542313
11.20398776,-1.244984865,-3.023876667,7.063194275
11.20898773,-1.00556469,-3.325546265,7.190086842
11.21398769,-0.7158663273,-3.766079187,7.714416981
11.21898766,-0.6464344859,-4.09408474,8.420706749
11.22398833,-0.6584054828,-4.417302132,9.136572838
11.22898926,-0.7900865674,-4.781220913,9.668086052
11.23398996,-0.9840168953,-5.183745861,9.888352394
11.23899089,-1.170764685,-5.715258598,9.768642426
11.24399182,-1.252167463,-6.471826553,8.973767281
11.24899183,-1.082179189,-6.886023521,8.186075211
11.25399269,-0.6320692301,-7.400776863,6.74955368
11.25899356,-0.2202665508,-7.621043205,6.043264389
11.26399379,0.6895300746,-7.585130215,5.102343082
11.26899446,1.37427175,-7.419930458,4.565742493
11.27399449,2.068590164,-7.106289864,4.446032524
11.27899449,2.552218914,-6.75194788,4.855441093
11.28399516,2.703053713,-6.112696171,6.258742332
11.28899512,2.724601507,-5.660192013,7.350498676
11.29399509,2.698265314,-4.841075897,8.648156166
11.29899539,2.679111719,-4.438849926,9.08868885
11.30399539,2.145204782,-3.936067581,9.304166794
11.30899542,1.508347034,-3.79241538,9.275436401
11.31399545,0.5937620401,-3.720589399,9.059958458
11.31899612,-0.1963245422,-3.811569214,8.746317863
11.32399612,-0.758961916,-4.115632534,8.475772858
11.32899612,-1.110909581,-4.807557106,8.35127449
11.33399608,-1.687912226,-5.834969044,8.178892136
11.33899609,-1.939303398,-6.577171326,8.207622528
11.34399608,-2.001552582,-7.994538784,8.061576843
11.34899612,-1.841141105,-8.758289337,7.709628582
11.35399612,-1.383848548,-10.03679276,6.912359715
11.35899612,-0.8978256583,-10.78378391,6.37127018
11.36399612,-0.2394201756,-11.96412563,6.313809395
11.36899612,0.5698199868,-12.63689613,6.71124649
11.37399612,1.55862534,-13.0463047,7.163750648
11.37899608,2.770091295,-13.01517963,7.659350395
11.38399605,4.299986362,-12.43338871,8.456619263
11.38899605,5.059247494,-11.90427017,9.069535255
11.39399605,5.638644218,-11.1165781,10.02482224
11.39899608,5.818209171,-10.69280434,10.51802731
11.40399608,5.638644218,-9.991303444,10.96574306
11.40899608,4.623203278,-9.850045204,11.1955862
11.41399672,3.371036053,-9.878775597,11.12376022
11.41899672,2.145204782,-9.948206902,10.86518669
11.42399672,0.8930372596,-9.929053307,10.66167927
11.42899675,-0.2274491638,-9.921871185,10.44620132
11.43399675,-1.431732655,-10.2283287,10.06552315
11.43899675,-2.018311977,-10.42465305,9.897929192
11.44399675,-2.671929121,-10.70716953,9.514857292
11.44899675,-3.134010077,-10.75265884,9.26825428
11.45399675,-3.162740469,-10.64252567,9.103054047
11.45899672,-2.827552319,-10.35761547,9.052776337
11.46399672,-2.540247917,-10.05834103,8.961795807
11.46899672,-2.138022184,-9.624990463,8.87560463
11.47399675,-1.74776721,-9.289801598,8.68406868
11.47899675,-1.345541358,-8.949825287,8.375216484
11.48399675,-0.538695395,-8.478167534,8.131008148
11.48899671,-0.06464344263,-8.202834129,7.951443195
11.49399668,0.6607996821,-7.779060364,7.616254807
11.49899668,1.063025594,-7.728782177,7.350498676
11.50399671,1.771709204,-7.652167797,6.725611687
11.50899675,2.248155355,-7.783848763,6.215646744
11.51399675,2.578555346,-7.992144585,6.036081791
11.51899675,2.595314741,-8.372822762,6.131849766
11.52399675,2.355894566,-8.897152901,6.184522152
11.52899675,2.195482969,-9.019257545,6.239588737
11.53399675,2.068590164,-9.091083527,6.476614952
11.53899671,2.099714994,-9.095871925,6.591536522
11.54399671,2.272097349,-9.040804863,6.821380138
11.54899671,2.406172752,-8.79899025,7.032069683
11.55399675,2.327163935,-8.593089104,7.218817234
11.55899674,2.090138197,-8.53083992,7.357681274
11.56399674,1.817199111,-8.71040535,7.48936224
11.56899671,1.517923832,-9.007286072,7.89398241
11.57399671,1.146822572,-9.407117844,8.743924141
11.57899671,1.039083481,-9.608230591,9.162909508
11.58399674,0.9121908545,-10.04636955,9.763854027
11.58899674,0.7278373241,-10.27142429,10.07270622
11.59399674,0.4740519226,-10.37437534,10.42944145
11.59899674,0.349553436,-10.24030018,10.64731407
11.60399674,0.09097966552,-9.862015724,10.90828228
11.60899674,-0.06224924326,-9.49809742,11.09981823
11.61399671,-0.1029506698,-9.040804863,11.16446209
11.61899668,-0.05506663769,-8.511686325,10.98489666
11.62399668,0.2561795712,-7.944260597,10.48450851
11.62899671,0.5554547906,-7.625831604,10.06073475
11.63399674,0.9433154464,-7.211634636,9.179668427
11.63899674,1.084573388,-6.991368294,8.614637375
11.64399674,1.314416766,-6.804620743,7.781454563
11.64899671,1.331176162,-6.739976883,7.283460617
11.65399667,1.209071875,-6.809409142,7.020098686
11.65899664,1.074996591,-6.921936512,6.747159481
11.66399664,1.067813993,-7.091924667,6.490980148
11.66899667,1.199495077,-7.170933247,6.261136532
11.67399671,1.398213744,-7.19487524,6.050446987
11.67899674,1.484405041,-7.225999832,5.906795025
11.68399674,1.59932673,-7.321768284,5.66976881
11.68899674,1.482010841,-7.403171062,5.607519627
11.6939967,1.089361787,-7.630620003,5.619490623
11.6989967,0.5410895944,-7.781454563,5.67216301
11.70399671,0.07900865376,-7.915530205,5.760748386
11.70899674,-0.1699883193,-8.028057098,5.743988991
11.71399674,-0.4501099288,-8.073547363,5.755959988
11.71899674,-0.6488286853,-8.030451775,5.861305237
11.7239967,-0.8188169599,-8.0232687,6.112696171
11.72899667,-0.8858546019,-8.008903503,6.282684326
11.73399664,-0.8906430602,-7.946654797,6.85489893
11.73899664,-0.9433154464,-7.898770809,7.225999832
11.74399664,-0.940921247,-7.994538784,7.630620003
11.74899667,-0.8451532125,-8.286631584,8.133402824
11.7539967,-0.4788403511,-8.729558945,8.705616951
11.75899674,-0.04548983276,-9.004891396,9.194033623
11.76399674,0.2274491638,-9.021651268,9.780612946
11.76899674,0.1364694983,-8.820538521,10.05115795
11.7739967,0.1723825186,-8.480561256,10.07988834
11.7789967,0.1340752989,-8.286631584,10.06312943
11.7839967,0.08140286058,-7.992144585,10.02721596
11.78899673,0.1053448766,-7.769483566,9.964966774
11.79399673,0.06703764945,-7.568370819,9.850045204
11.79899673,-0.06464344263,-7.37444067,9.670479774
11.80399673,-0.107739076,-7.123049259,9.464578629
11.80899673,-0.1915361285,-6.931513309,9.067141533
11.81399673,-0.653617084,-7.000945091,8.585906982
11.8189967,-0.6847416759,-6.962637901,8.451830864
11.8239967,-0.6344634295,-6.881235123,8.195652008
11.8289967,-0.6607996821,-6.644208908,7.886799812
11.83399673,-0.624886632,-6.225223541,7.376834869
11.83899673,-0.6512228847,-6.0001688,7.23557663
11.84399673,-0.7302315235,-5.837363243,7.187692642
11.8489967,-0.5123591423,-5.650615215,7.249941826
11.85399666,-0.2753331959,-5.514145851,7.479785442
11.85899663,-0.06943184882,-5.408801079,7.953837395
11.86399663,0.215478152,-5.183745861,8.624214172
11.86899663,0.383072257,-5.26514864,8.928277016
11.87399666,0.7110779285,-5.564424038,9.507674217
11.8789967,1.015141487,-5.698499203,9.897929192
11.88399673,1.383848548,-5.985803604,10.46056652
11.88899673,1.359906554,-5.995380402,10.64252567
11.89399673,1.158793569,-5.973832607,10.52042198
11.8989967,0.9097966552,-5.935525417,10.17086792
11.9039967,0.6416460276,-5.911583424,9.474155426
11.9089967,0.4094084799,-5.7104702,8.473379135
11.91399673,-0.06464344263,-5.066430092,7.424718857
11.91899673,-0.349553436,-4.843470097,6.847716331
11.92399673,-0.383072257,-4.467580318,5.825392246
11.9289967,-0.5530605912,-3.924096584,5.351340294
11.93399666,-0.3639186621,-2.942473888,5.0353055
11.93899663,-0.2442085743,-2.262520552,4.836287498
11.94399663,-0.8643068075,-1.778891921,4.901230335
11.94899666,-1.233013868,-1.644816518,4.874594688
11.95399669,-1.745373011,-1.740584612,4.757278919
11.95899673,-1.527500629,-1.889025092,4.42448473
11.96399673,-0.2777273953,-1.956062794,3.744531393
11.96899673,0.5985504389,-1.647210717,3.634398222
11.97399669,1.719036818,-0.6296750307,4.134786129
11.97899669,2.245761156,-0.03830722719,4.778826714
11.98399669,3.404554844,0.624886632,5.686528206
11.98899673,4.158728123,1.027112484,5.882853031
11.99399676,4.357447147,1.386242747,5.511751652
11.99899676,3.636792421,1.843535304,4.95869112
