Time (s),Acceleration x (m/s^2),Acceleration y (m/s^2),Acceleration z (m/s^2)
9.003378577,-0.006566530572801442,0.5159715507554732,-0.3440811230405062
9.008378543,-0.042783936241226186,0.7878347267277448,-0.3059409067082835
9.013378509,-0.07840828947315144,1.0595426357051168,-0.2684123642779036
9.018378475,-0.11305846560907704,1.3283533844147322,-0.23235378381291952
9.023378441,-0.1463911593389219,1.5915709008544017,-0.1985734424659226
9.028378441,-0.17810752590787232,1.8465894697038092,-0.1678116211481055
9.033378341,-0.20795875827936725,2.0909358063508883,-0.14072458289840578
9.038378074,-0.23575048090220924,2.322307726702802,-0.11787093481537178
9.043378107,-0.26134585890886386,2.538608589930136,-0.09970072301501375
9.048378107,-0.28466733834660546,2.737976849568386,-0.08654752914358606
9.053378107,-0.3056969528740922,2.918810230119936,-0.07862374479444842
9.058378073,-0.3244751581572721,3.0797842313475545,-0.07601909756238698
9.063378073,-0.3410981868685075,3.2198648332582858,-0.07870239301664088
9.068378073,-0.35571395262980554,3.3383154223812963,-0.086526326774575
9.073378106,-0.36851656819334916,3.4346980847689883,-0.09923511732139047
9.078378106,-0.37973958054045637,3.508869518569742,-0.11647461938661062
9.083378106,-0.38964806377991407,3.560971913564446,-0.13780450330663943
9.088378106,-0.3985297507557077,3.591419227263709,-0.1627120296357894
9.093378106,-0.40668542594157503,3.6008793540360466,-0.19062691186221978
9.098378106,-0.4144188423254777,3.5902527315180883,-0.22093674613142456
9.103378072,-0.4220264577386534,3.560647955804732,-0.2530024983009659
9.108378072,-0.4297873056828143,3.513354986055223,-0.28617357573383156
9.113378072,-0.43795331908807184,3.4498165155519103,-0.3198020694247718
9.118378105,-0.4467404127476153,3.3715980756812245,-0.35325582254398924
9.123378138,-0.45632060354964077,3.280357425636663,-0.3859300545056878
9.128378138,-0.46681540989041825,3.1778137649464835,-0.41725733859681285
9.133378104,-0.4782907258470875,3.0657172868748965,-0.4467157951608617
9.13837807,-0.4907533146358142,2.945819565720586,-0.4738354255637662
9.14337807,-0.5041490112967576,2.819845237696246,-0.49820258011144575
9.14837807,-0.5183626666872877,2.6894653928942476,-0.5194626271858195
9.153378103,-0.5332198037023471,2.5562730468421213,-0.5373209651768205
9.158378103,-0.5484898938583892,2.421761008151088,-0.551542580775425
9.163378103,-0.5638911022520968,2.2873024075299835,-0.5619503929143174
9.168378103,-0.5790962972520431,2.154134104807759,-0.568422623003198
9.173378103,-0.5937400836509481,2.023343143724007,-0.5708894020026057
9.178378103,-0.6074265984923045,1.8958563764161023,-0.5693287766722397
9.183378203,-0.6197378094595748,1.7724333280951703,-0.5637622286432461
9.188378503,-0.6302420762739003,1.653662316317904,-0.5542497848524325
9.193378503,-0.6385027731344083,1.5399597794840452,-0.5408847822522332
9.198378536,-0.6440868195136586,1.4315727080733163,-0.5237883519265224
9.203378536,-0.6465730201350709,1.3285840126306838,-0.5031037022500817
9.208378536,-0.645560164098272,1.2309206076547476,-0.47899030152792577
9.213378502,-0.6406748698907097,1.138363943238984,-0.45161808288379773
9.218378468,-0.6315791822293255,1.0505626792398273,-0.42116181490099774
9.223378434,-0.6179779272220635,0.9670471723096508,-0.387795799036512
9.228378434,-0.5996258168276489,0.8872454361643384,-0.3516890687107789
9.233378467,-0.5763342666733923,0.8105002406095854,-0.31300127527334515
9.2383785,-0.547977857859259,0.7360870342272452,-0.2718794520749435
9.243378533,-0.5145003373388964,0.6632324068949197,-0.22845584706282562
9.248378566,-0.4759200154285389,0.5911328481161142,-0.18284700200302947
9.253378566,-0.4323343848547727,0.5189736013495388,-0.13515422713956368
9.258378532,-0.38392375579029686,0.44594745831200006,-0.08546556981713906
9.263378498,-0.3309536789295191,0.3712733752352842,-0.033859304069710404
9.268378498,-0.27377591807967544,0.2942148200362216,0.019591119873252225
9.273378498,-0.21282773915479736,0.21409777100454502,0.07481082273227331
9.278378531,-0.14862930687075965,0.130328281235458,0.13171618870921056
9.283378197,-0.08177902471762549,0.042409497921849636,0.19020683149744494
9.288378197,-0.01294671594268371,-0.05004201701819198,0.25015722207177227
9.293378163,0.057135381328072055,-0.14728087580619603,0.3114084041852082
9.298378129,0.1276837489664275,-0.2494186415435042,0.3737602371494327
9.303378095,0.19787671313362376,-0.35641114314224187,0.4369645953732047
9.308378095,0.2668693347177526,-0.4680477480246175,0.5007199222833122
9.313377461,0.3338097651617093,-0.5839430710517348,0.5646674864862768
9.318377494,0.39785669753486524,-0.703531639060861,0.6283896252798196
9.323377527,0.45819748391193943,-0.826066046717891,0.6914101896907975
9.328377527,0.5140664438551653,-0.9506191257893755,0.7531973299702398
9.333377527,0.5647628563475484,-1.0760906019866285,0.813168683836295
9.338377493,0.6096681095345966,-1.201218627547717,0.8706989538029665
9.343377493,0.6482614795810182,-1.3245964517956859,0.9251297856304544
9.348377493,0.6801340231232934,-1.4446943277956001,0.9757817868448689
9.353377526,0.7050000990878367,-1.5598865574232668,1.021968450965949
9.358377526,0.7227060856794019,-1.6684833603207727,1.063011678328432
9.363376859,0.7332359253237324,-1.7687670273696943,1.0982585087138288
9.368376859,0.7367132113159462,-1.8590315996724436,1.1270986077198886
9.373376859,0.7333996226375975,-1.9376251115942573,1.148981983406701
9.378376859,0.72368961655003,-2.0029932619089017,1.1634363581199625
9.383376825,0.708101401167206,-2.053723240472495,1.1700835873342048
9.388376791,0.6872643312136859,-2.0885863481189824,1.1686545066140992
9.393376791,0.6619029974502927,-2.1065780113781503,1.1590016015927909
9.398376791,0.6328184088913873,-2.106953814453692,1.1411089338502978
9.403376157,0.600866788473037,-2.089260248834449,1.1150988149840542
9.408375257,0.5669366065534687,-2.0533590140985685,1.0812347991342686
9.41337459,0.5319245531334809,-1.9994438875228502,1.0399206600362014
9.418373656,0.49671119469877606,-1.928049406347704,0.991695133526789
9.423372989,0.4621370766245631,-1.840050862219921,0.9372223410297088
9.428372322,0.428980021491933,-1.7366553785826238,0.8772779617968205
9.433371788,0.3979343414822933,-1.6193841164487435,0.812731386428657
9.438370888,0.36959263179609037,-1.4900459224169333,0.7445242544187513
9.443369988,0.3444307427286838,-1.3507029876937073,0.6736459462287886
9.448369321,0.32279644017485437,-1.2036293233724835,0.601106756458975
9.453368421,0.3049021567284295,-1.0512630720164586,0.5279096084150819
9.458367754,0.2908221070265907,-0.8961538653535798,0.4550212721120267
9.463368387,0.28049389167731664,-0.7409065981291096,0.38334411169472216
9.468368387,0.2737245478305768,-0.5881231137499255,0.3136894123334753
9.473367987,0.27020083073516843,-0.44034338333552403,0.24675331949478288
9.47836802,0.2695033435306057,-0.29998780124934216,0.1830963624837533
9.48336802,0.27112398619583744,-0.16930221222394992,0.1231274268789218
9.48836802,0.27448607836907907,-0.05030722418998689,0.06709288773658949
9.493367986,0.2789664274109224,0.055246753900256976,0.015071422683173607
9.498367952,0.2839185607595058,0.14591747602694813,-0.03302519969293309
9.503367518,0.28869631736391316,0.22060076342499366,-0.07744530451823275
9.508366851,0.2926769948957606,0.27855153758232565,-0.11858466904446904
9.513367517,0.29528327689825923,0.31939544822415045,-0.15696850440155077
9.51836755,0.29600321666972995,0.3431308582848441,-0.1932287436014242
9.523367583,0.29440763120069224,0.35012125027314284,-0.22807752339948073
9.528367616,0.29016435584789907,0.34107841632981295,-0.2622779105014148
9.533367616,0.2830489237396826,0.3170370762074361,-0.29661303181600956
9.538367616,0.27295135727600695,0.27932182212563683,-0.3318548156473941
9.543367582,0.2598788872862649,0.22950750683152382,-0.3687335323606344
9.548367582,0.24395454542285358,0.1693743629941958,-0.4079092407563006
9.553368248,0.22541170652469372,0.10085926227514284,-0.4499461070379119
9.558369181,0.204584789843291,0.02600458736376976,-0.49529037896579037
9.563369847,0.1818964591613267,-0.05309380113045729,-0.5442525848330988
9.568370747,0.15784178700109455,-0.13433806713771684,-0.5969943032684322
9.57337138,0.1329699601508484,-0.21567803189110965,-0.6535196325867625
9.578372013,0.10786419461760399,-0.29515773913905907,-0.7136712917451846
9.583372879,0.08312059061501281,-0.37095793212589506,-0.7771311192261195
9.588373779,0.05932668798826861,-0.44143362387592006,-0.8434246066989473
9.593374712,0.03704047983222343,-0.5051461565119565,-0.9119290117241291
9.598375412,0.016770611523306927,-0.5608893572664542,-0.9818845363426374
9.603375678,-0.0010415597313325395,-0.6077095946921742,-1.0524080349510079
9.608376344,-0.01603743852977607,-0.6449197073919294,-1.1225087257180029
9.613376344,-0.02795367554955059,-0.6721069133147061,-1.1911054251449218
9.61837631,-0.036631239343992865,-0.6891349092251671,-1.2570449023029786
9.623376676,-0.04202076863485595,-0.6961404396911401,-1.3191210493555843
9.628376676,-0.04418402984693379,-0.693524657419493,-1.376094673804036
9.633376709,-0.043291447976608,-0.6819396185099317,-1.426713817577866
9.638376742,-0.039615826633299295,-0.6622702652941689,-1.469734581848897
9.643376742,-0.03352251615818682,-0.6356122545267464,-1.5039424732361002
9.648376742,-0.025456418040381908,-0.6032459975226672,-1.5281742835718337
9.653377142,-0.015926322373989527,-0.5666072970903069,-1.5413404745466934
9.658377808,-0.005487159039139406,-0.5272549969113389,-1.542447966395374
9.663377808,0.005279197880172766,-0.4868361027817548,-1.530623133443217
9.668377774,0.015783897230683352,-0.447048889620434,-1.5051346963775676
9.673377774,0.02545115835381262,-0.40960456897672065,-1.4654160795061573
9.678377774,0.03373770910968397,-0.3761881535592676,-1.4110866799253017
9.683377807,0.040150942865426066,-0.3484192132858489,-1.3419713853446056
9.688377807,0.04426516222497946,-0.32781326799136,-1.2581175911947693
9.693377807,0.04573534125823358,-0.31574460227572737,-1.1598089185545783
9.698377773,0.04430792768942843,-0.3134113147096376,-1.047574832685112
9.703377739,0.039828318929643475,-0.3218034229054244,-0.9221954129950574
9.708377705,0.032244774996402756,-0.34167483398134113,-0.7847006283736082
9.713377705,0.02160866998890728,-0.3735199535908543,-0.6363636203522527
9.718377738,0.008071124934620307,-0.41755564411765506,-0.4786876803749797
9.723377771,-0.008123797401848556,-0.4737091536416545,-0.3133868165889178
9.728377804,-0.026649026244649678,-0.5416125231815928,-0.14236003180348358
9.733377804,-0.04710712126782376,-0.6206038426819481,0.03234032996332055
9.738377804,-0.06904509742094883,-0.7097355685776331,0.20854557416865116
9.74337777,-0.0919708459976683,-0.8077899400347421,0.3840121616880655
9.748377736,-0.11537051404243975,-0.9133013401799691,0.5564667002460628
9.753378402,-0.13872618069001522,-1.02458524685577,0.7236532151004735
9.758378435,-0.1615331698411536,-1.1397732102459215,0.8833813586145663
9.763378468,-0.18331636319502687,-1.2568530895295102,1.033574136705444
9.768378468,-0.20364492502120843,-1.3737135865853554,1.1723137096593474
9.773378468,-0.2221449188965381,-1.4881919416746021,1.2978838708203058
9.778378434,-0.23850938537454783,-1.5981235141889376,1.4088079187814906
9.7833784,-0.2525055556767359,-1.7013918705072795,1.5038808094950677
9.788378366,-0.2639789962369226,-1.7959779484961098,1.5821946904055364
9.793377699,-0.27285460740866113,-1.8800068694515846,1.6431571611102738
9.798377732,-0.2791345309751434,-1.9517910258672602,1.6865018544782282
9.803377765,-0.28289314877305993,-2.009868186674683,1.7122911714383249
9.808377798,-0.284269472346099,-2.053033525801738,1.7209112202112717
9.813377798,-0.28345732517141475,-2.08036468592777,1.7130592010851333
9.818377798,-0.2806937993614699,-2.0912392247664506,1.6897236402700746
9.823377764,-0.2762465238593511,-2.085344042504875,1.6521580140445724
9.828377764,-0.27040030941028614,-2.0626766438393567,1.601848423326746
9.833377764,-0.26344373789252934,-2.023538336663901,1.5404760861780764
9.838377797,-0.25565624247391483,-1.9685197048142544,1.4698755175022018
9.843377797,-0.2472961839527651,-1.8984789091848089,1.3919893635138811
9.848377797,-0.23859037124147847,-1.814513565810411,1.3088209503066142
9.853377797,-0.22972540354392465,-1.7179271171349741,1.2223856828928013
9.858377797,-0.22084113103074793,-1.6101907497611607,1.1346624828599277
9.863377797,-0.21202644225902362,-1.492902015132862,1.047546470368849
9.868377763,-0.2033174930462649,-1.3677413766423838,0.9628040754189382
9.873377729,-0.19469839618211476,-1.2364279370136786,0.882031704906799
9.878377729,-0.1861042977328671,-1.1006755944977207,0.8066189999977984
9.883377762,-0.17742667728379954,-0.9621508370384134,0.7377175979509345
9.888377795,-0.1685206292536392,-0.8224333114421465,0.676216169064481
9.893377795,-0.15921381257073297,-0.6829802012960797,0.622722337697387
9.898377795,-0.14931669806543657,-0.5450953163439536,0.5775519210328753
9.903377761,-0.13863369802654632,-0.40990364294234016,0.5407257352439431
9.908377761,-0.12697473145824548,-0.2783319366166896,0.5119740307887961
9.913377761,-0.11416676267253392,-0.1510957591715498,0.4907484308088214
9.918377794,-0.10006485039515482,-0.028693178230062077,0.47624106231732727
9.923377794,-0.08456225876216272,0.08859484077304586,0.46741039176638416
9.928377794,-0.06759920942231494,0.20069750893296903,0.46301310693988995
9.933377794,-0.04916989586990855,0.3077411003812902,0.46164122858768425
9.938377794,-0.02932743892146668,0.41003017823697285,0.46176349243199644
9.94337846,-0.008186537323300446,0.5080238579274614,0.4617699223799537
9.948378426,0.014076340689317594,0.6023079590783276,0.4600184268868699
9.953378426,0.03722527355327188,0.6935640255427028,0.4548821980307902
9.958378426,0.06096964557764133,0.782536288984115,0.44479667854824684
9.963378459,0.08497117134799556,0.8699977078908575,0.42830488388763965
9.968378459,0.10885290318563069,0.9567162255238425,0.40409992069917916
9.973378459,0.13220985098366642,1.0434223537679106,0.37106362635413564
9.978378425,0.15462077477940975,1.130779105138911,0.3283003616355722
9.983378391,0.17566066279267395,1.2193551664214635,0.27516511455918535
9.988378357,0.1949133839134459,1.309602043190012,0.21128521086750135
9.993378357,0.21198400750860596,1.4018357179304066,0.13657507238001115
9.998378357,0.2265103170815184,1.496223172233574,0.05124361879480407
10.00337839,0.23817310590590757,1.592773942256201,-0.044205924868949246
10.00837842,0.24670492605716318,1.6913367180419983,-0.1489838714152748
10.01337846,0.2518970572034121,1.791600864851756,-0.2620294245378991
10.01837846,0.25360455570793106,1.893102635294726,-0.38203319103375044
10.02337846,0.2517493267351802,1.9952357502755056,-0.5074662829632418
10.02837842,0.24632122565094,2.0972659522299257,-0.6366152242403098
10.03337842,0.23737724007756414,2.1983490749061345,-0.7676216798330887
10.03837842,0.22503883618341738,2.2975521267973225,-0.8985258708216779
10.04337846,0.209487580422792,2.393876843069668,-1.0273124398079547
10.04837846,0.1909591769915154,2.486285117136165,-1.1519574887955732
10.05337846,0.16973609186303631,2.5737256785853866,-1.2704755137491368
10.05837842,0.14613896246164404,2.6551613455778553,-1.3809649943791265
10.06337839,0.12051701499520738,2.7295961532556885,-1.481651460886292
10.06837835,0.0932377303662463,2.7961016478088108,-1.5709269552825662
10.07337835,0.0646760180318103,2.8538416393630364,-1.647384936630352
10.07837839,0.03520317792566891,2.9020947270189117,-1.7098498436499898
10.08337842,0.005175953276644277,2.940273948305354,-1.7574007143863177
10.08837845,-0.025074001127202896,2.9679429650697378,-1.7893884579525985
10.09337845,-0.055249894170060466,2.984828279460041,-1.8054465658080836
10.09837845,-0.08509846946367562,2.9908270770721552,-1.8054952297942148
10.10337842,-0.11441723211719208,2.986010418180319,-1.7897389938616999
10.10837842,-0.14305991506324348,2.9706216389140137,-1.7586582023086879
10.11337842,-0.17093990884588717,2.9450699762527526,-1.7129946198965473
10.11837845,-0.1980314338231264,2.909919585244571,-1.6537316912820879
10.12337848,-0.22436830310673786,2.8658742643348054,-1.5820699816735737
10.12837848,-0.2500402073805772,2.813758336303707,-1.4993984001238203
10.13337848,-0.2751865464544202,2.7544942410947693,-1.4072618550801828
10.13837848,-0.2999879323137156,2.6890774783162215,-1.3073260335153576
10.14337848,-0.3246555884126792,2.618549590303676,-1.201340034573704
10.14837848,-0.34941896393674815,2.543969903870398,-1.091097628599279
10.15337845,-0.3745119650407741,2.4663867553409085,-0.9783979520912247
10.15837845,-0.4001582749273045,2.3868089149918914,-0.8650064845276245
10.16337845,-0.42655628949853214,2.306177908723114,-0.7526171771358874
10.16837815,-0.4538642332263541,2.225341910416141,-0.6428166082822708
10.17337815,-0.48218603762487044,2.1450318501986865,-0.5370510176971515
10.17837815,-0.511558558655764,2.065840352089706,-0.4365970176042613
10.18337812,-0.5419406773706767,1.9882040777346297,-0.34253669278694887
10.18837812,-0.5732047706041212,1.9123900079726996,-0.2557376881490902
10.19337812,-0.6051309587135416,1.83848613644042,-0.17683874923239143
10.19837815,-0.6374044401896279,1.766396974758529,-0.10624103760225398
10.20337815,-0.6696161141369141,1.695844174050021,-0.04410539720004136
10.20837815,-0.7012665764978194,1.6263724525512009,0.009644395136454894
10.21337815,-0.7317734589782956,1.5573608869275333,0.05531250018867897
10.21837815,-0.760481964849918,1.4880394804727044,0.09341624765510195
10.22337815,-0.7866783466874916,1.417510769987552,0.12466609897786304
10.22837812,-0.8096059707643101,1.3447760799393023,0.1499408383319405
10.23337812,-0.8284835241039948,1.268765882683463,0.1702586062890976
10.23837812,-0.8425248459640912,1.1883735827845454,0.18674449806321877
10.24337815,-0.8509598087728422,1.1024919177450947,0.20059554362544402
10.24837818,-0.8530556369093452,1.0100510620101506,0.2130439683628505
10.25337818,-0.8481380369494168,0.9100574398109995,0.2253196965445759
10.25837815,-0.835611520617176,0.8016321978705904,0.23861310051397297
10.26337811,-0.8149783313812715,0.6840482632012883,0.2540390113096032
10.26837808,-0.7858554368601295,0.556764915505766,0.2726029875584392
10.27337805,-0.7479891207642951,0.4194588380656925,0.2951707866133287
10.27837804,-0.7012667968845983,0.27205067398245364,0.3224418944831786
10.28337808,-0.645725767762629,0.1147262037770321,0.3549278510356993
10.28837811,-0.5815587541351562,-0.05204862701498284,0.39293595871370607
10.29337814,-0.509116119645513,-0.22751946795411115,0.43655879337450404
10.29837814,-0.4289048019774023,-0.4106425965732942,0.48566975386020966
10.30337814,-0.3415840326273749,-0.6000915392719199,0.5399247034285516
10.30837811,-0.24795798176187073,-0.7942714105085058,0.5987695821530398
10.31337811,-0.14896550284508112,-0.9913409031964299,0.661453712831088
10.31837844,-0.04566717684638821,-1.1892416573929094,0.7270483867701775
10.32337848,0.0607701271795888,-1.3857345253736588,0.794470198488372
10.32837848,0.16909094329462704,-1.5784420451635166,0.8625084965103955
10.33337848,0.27797090125400686,-1.7648962381065325,0.9298562288038085
10.33837844,0.3860381450866061,-1.942590665725031,0.9951433862867721
10.34337841,0.4918961707608784,-2.1090355232081124,1.056972188919902
10.34837837,0.5941477392690022,-2.2618144168697545,1.113953119727359
10.35337837,0.6914194813771849,-2.3986413756893548,1.1647408951482559
10.35837841,0.7823867693934213,-2.5174165875570336,1.2080694654691209
10.36337844,0.865798393553441,-2.6162793343310033,1.2427851646225074
10.36837847,0.9405005511663962,-2.6936566309781487,1.267877171600273
10.37337851,1.0054596397950974,-2.748306155811344,1.2825045042514234
10.37837851,1.059783342967909,-2.779352190919198,1.2860188398984231
10.38337847,1.1027395077371158,-2.7863134700868506,1.2779825470629278
10.38837844,1.1337723383325102,-2.7691220481331738,1.2581814209654203
10.39337844,1.1525154718605213,-2.7281325510897343,1.2266317447452553
10.39837844,1.1588015625252328,-2.664121431297732,1.1835814485688683
