Time (s),X (m/s^2),Y (m/s^2),Z (m/s^2)
6.001616083,-0.01391078894551237,0.11838292090005516,-0.44001537801913265
6.011543083,-0.031261266267599966,0.045529035282394104,-0.25592769946773414
6.021471083,-0.04740087815727693,-0.023730360555716475,-0.08124393609297996
6.031398083,-0.061436340481412346,-0.08574659594009018,0.07357559878416586
6.041326083,-0.07274924251924707,-0.13772375423738906,0.20034698559294395
6.051253083,-0.08105333429407463,-0.17801062114391927,0.29403581639327575
6.061181083,-0.0863792863607392,-0.20622256967390348,0.35320824476149365
6.071108083,-0.08899524494605242,-0.22317938320265066,0.37999390140119044
6.081036083,-0.08928798281974426,-0.2306756571594881,0.37956353585461305
6.090963083,-0.08763918991063709,-0.23112918983334793,0.35920073705936617
6.100891083,-0.08433195008177834,-0.22717385161257683,0.3271167755825252
6.110819083,-0.07951328078196133,-0.22127177456191155,0.2912038194041152
6.120746083,-0.07322213452710001,-0.21541264226609488,0.2579317034842363
6.130674083,-0.0654737614693049,-0.2109463787260643,0.23156436225961216
6.140601083,-0.056376549709998156,-0.20856490218149762,0.2138122336066319
6.150529083,-0.04624943105013696,-0.208417067573645,0.20396019806940902
6.160456083,-0.03570697460120623,-0.21031627745042408,0.19942977653889377
6.170384083,-0.025684956650347413,-0.21398658421884975,0.19665969496627683
6.180311083,-0.017390680366356288,-0.2192903901009242,0.19213088682722573
6.190239083,-0.01217763940596038,-0.22638734406187822,0.18333211435743815
6.200166083,-0.011360465169232883,-0.23578867231602493,0.1694703983516342
6.210094083,-0.016000701012052285,-0.24829320651747253,0.15177921943284636
6.220021083,-0.026703954212051555,-0.2648180193884675,0.13335949517591586
6.229949083,-0.04347122544170198,-0.28616179119065294,0.11858606623536808
6.239876083,-0.06563951709241106,-0.3127552834427651,0.11220285682464809
6.249804083,-0.0919299051212371,-0.34445549762314054,0.11829220176625607
6.259731083,-0.1205991639978148,-0.38042854056280473,0.1393258436197549
6.269659083,-0.14966949614390532,-0.4191460284875421,0.17548506557880128
6.279586083,-0.17719520236020267,-0.45849749274408497,0.224382126372687
6.289514083,-0.20151854576375822,-0.4960012698805944,0.2812371303546581
6.299441083,-0.22147037682987072,-0.5290809283389978,0.33947960595076915
6.309369083,-0.2364828634996789,-0.5553645896282712,0.39166892219911953
6.319296083,-0.24659916996710804,-0.572961820743781,0.43057593483590506
6.329224083,-0.25238467418068483,-0.5806780568324599,0.4502475770376666
6.339151083,-0.2547622105628092,-0.5781391001460735,0.4468868523347578
6.349079083,-0.25480587096401686,-0.5658151305972074,0.4194172964525821
6.359006083,-0.25353172995592566,-0.5449503573585762,0.3696549939706225
6.368934083,-0.2517198652427831,-0.517417006779067,0.3020736891336924
6.378861083,-0.24979285693118147,-0.4855190982139607,0.22321044931390238
6.388789083,-0.24776469812899155,-0.45177302305936307,0.14081142369370586
6.398716083,-0.24526297005304853,-0.4186898590272145,0.0628506278603188
6.408644083,-0.24161739637525026,-0.38857983469441987,-0.0034363673683075334
6.418571083,-0.2359998600715152,-0.3633932890203297,-0.05237700824839397
6.428499083,-0.22759453212625752,-0.34460603260338435,-0.08044974992523957
6.438426083,-0.21577211192986548,-0.33315167556278175,-0.0865797771616833
6.448354083,-0.20024047828270236,-0.3294001808075007,-0.07212579969224647
6.458281083,-0.1811469313124578,-0.33318035061217616,-0.0405773000242545
6.468209083,-0.15911519091631854,-0.3438427199262201,0.0029864412578499318
6.478136083,-0.13521171098077425,-0.3603567277507849,0.052598780188896105
6.488064083,-0.11084745081567386,-0.38143158627819035,0.10217765331330458
6.497991083,-0.08763022052147071,-0.40564567513526417,0.14627239794695066
6.507919083,-0.06718810373736502,-0.4315675513052803,0.18069929217581238
6.517846083,-0.050986795388920356,-0.4578544378783087,0.2029953461656813
6.527774083,-0.04016360070544912,-0.4833200204241796,0.21263937770791502
6.537701083,-0.03539823892803033,-0.5069695778687118,0.21101201418218185
6.547630208,-0.036835464846372394,-0.5280048613951748,0.20109318509411378
6.557557208,-0.044067861455634336,-0.545803677511104,0.18692728794469748
6.567485208,-0.056180370317767944,-0.5598811057137488,0.17291997305930626
6.577412208,-0.07185179763609816,-0.5698418188121821,0.16306098250621043
6.587340208,-0.08950245315736294,-0.5753357551463932,0.160188087623581
6.597267208,-0.10747120520411202,-0.5760305570299904,0.16541192947658268
6.607195208,-0.12420024717113452,-0.5716118501908694,0.17780658484338435
6.617122208,-0.13840304939694806,-0.5618163097684723,0.19443547246388804
6.627050208,-0.14919172439218123,-0.5464940472981146,0.21073076580110417
6.636978208,-0.15614513528391696,-0.5256885699322069,0.22118519672531292
6.646905208,-0.15930803048447972,-0.49971680045996686,0.22025902691696375
6.656832208,-0.15912268925102355,-0.4692299207500839,0.20336264784595595
6.666760208,-0.15630596070794553,-0.43523814127529514,0.16775464415934652
6.676688208,-0.15169398916373927,-0.39908793048529767,0.1132007125593539
6.686615208,-0.1460822533284881,-0.3623878913121986,0.04227140406361373
6.696543208,-0.14008857815261572,-0.32688865187612876,-0.03978756148188732
6.706470208,-0.13406182488808263,-0.2943313624060074,-0.12560872580233848
6.716398208,-0.12805056953515648,-0.2662861837816122,-0.20660508002632993
6.726325208,-0.12183591759743324,-0.24400431162190447,-0.2740866580961145
6.736253208,-0.11502179679996877,-0.22830422615839083,-0.3204206155103196
6.746180208,-0.10716569822373709,-0.21950661110699046,-0.3400567943577191
6.756108208,-0.09792478355445453,-0.21742485972536452,-0.3302647920460618
6.766035208,-0.0871887579029532,-0.22141041081769441,-0.2914793438190387
6.775963208,-0.07517301564068572,-0.2304446048507882,-0.22721792437438668
6.785890208,-0.06245274716817096,-0.24326188897502388,-0.14360305689384592
6.795818208,-0.049929375569520644,-0.2584845451550868,-0.04857717226038689
6.805745208,-0.038732826213903455,-0.27474871445339616,0.04906928270198989
6.815673208,-0.03007449307738577,-0.2908064292148925,0.14072635311710177
6.825600208,-0.02507440097911426,-0.30559699853859096,0.21892787470669453
6.835528208,-0.024590600007937478,-0.3182891480086382,0.2781465457716666
6.845455208,-0.029078441896617114,-0.3282988740774075,0.31534241646799216
6.855383208,-0.038501951703615894,-0.33528680008517653,0.3302152383081552
6.865310208,-0.052310125216074393,-0.3391363879154577,0.3251427534241994
6.875238208,-0.0694800582416517,-0.33991431312726106,0.30481881273025124
6.885165208,-0.08861905375515165,-0.3378170930101674,0.2756340481753238
6.895093208,-0.1081110346163904,-0.3331111402772834,0.24486600818804005
6.905020208,-0.1262891012600164,-0.32607446510992044,0.2197653019577898
6.914948208,-0.1416151686664519,-0.31694747212303354,0.2066392541805008
6.924875208,-0.1528482063443054,-0.30589950406265365,0.21004207772157066
6.934803208,-0.15918418585353464,-0.2930175243545942,0.2321755455837676
6.944730208,-0.16035348371830713,-0.27832176251638285,0.27258315441967845
6.954658208,-0.15666490169466296,-0.2618082084768035,0.3281858879693457
6.964585208,-0.14898885459203345,-0.24351033733825173,0.3936653391229438
6.974513208,-0.1386757027254094,-0.22356615177396097,0.4621558182910209
6.984440208,-0.1274104372629952,-0.20227474453232003,0.5261637598836536
6.994368208,-0.11701363577799506,-0.18012865384780635,0.5785934158509672
7.004295208,-0.10920954302561929,-0.1578115738289284,0.6137304489510036
7.014223208,-0.10539114124551105,-0.1361543393661507,0.6280302351073951
7.024150208,-0.10641542459028994,-0.11604722778874933,0.6205818452343198
7.034078208,-0.11245916645699602,-0.0983155342631997,0.5931695740132287
7.044005208,-0.12295809171491716,-0.08357738436448074,0.549922024566945
7.053933208,-0.13664249901065487,-0.07211372936619403,0.4966111898040387
7.063860208,-0.151670843584961,-0.06378480983425044,0.4397269343883363
7.073788208,-0.1658495541463706,-0.05802112438696338,0.38549287097606
7.083715208,-0.17691291447259977,-0.05390053669782893,0.33899812617277253
7.093643208,-0.1828238764821396,-0.050301789545302816,0.3035924351942544
7.103570208,-0.18204986091154995,-0.04610561560592655,0.28063437875843794
7.113498208,-0.17377052708300472,-0.04040336143279151,0.2696076314653874
7.123425208,-0.15798659137338575,-0.032671597416965376,0.268545842635496
7.133353208,-0.13551586292027812,-0.02287875572918393,0.27464998441630795
7.143280208,-0.10788028997314543,-0.011503884469281949,0.28495300366194426
7.153208208,-0.07710344949906277,0.0005354222366787356,0.2968882777998433
7.163135208,-0.04545025955851805,0.012032536341634162,0.308648514303011
7.173063208,-0.015148303597418294,0.021692327180858083,0.3192747503393276
7.182990208,0.011868353572262335,0.028348378942071924,0.32848113492623826
7.192918208,0.03415713503657201,0.031161132505631576,0.3362858205905525
7.202845208,0.05088230969009544,0.02976600987617272,0.34256590471937637
7.212773208,0.06183911974610913,0.02434931207050179,0.34667276833840743
7.222700208,0.067394878432546,0.01564000599059706,0.34722771015554743
7.232628208,0.06836880254453291,0.00481716801427907,0.34216923260386045
7.242555208,0.06587954110031805,-0.0066536785130188215,0.32905518215153307
7.252483208,0.061189482415832136,-0.01722833698339739,0.3055548575131574
7.262410208,0.05556916215204478,-0.025498805083227664,0.27001738781756035
7.272338208,0.05019568467942352,-0.030376139211550544,0.22198420198599447
7.282265208,0.04608877289359316,-0.031209751855982838,0.16252608025311013
7.292193208,0.04407944162062721,-0.02782687973775335,0.09432268347225399
7.302120208,0.04480083624955752,-0.020494494965537093,0.021454848529552106
7.312048208,0.0486888043518425,-0.009822067827221627,-0.05106330777169208
7.321975208,0.055981072647801416,0.003367230798528355,-0.11793466279644178
7.331903208,0.06670809340153291,0.018168420064287753,-0.1742984783064789
7.341830208,0.08067470000180581,0.033706592113781984,-0.21639274349476378
7.351758208,0.0974378545415443,0.049213987857476826,-0.24204609713264752
7.361685208,0.11629012619048917,0.06406628378780323,-0.25092148155734084
7.371613208,0.13626025377267034,0.07778039277444619,-0.244482853048922
7.381540208,0.15614149714179282,0.0899834435556111,-0.225707079725487
7.391468208,0.1745559858111885,0.10036835337753758,-0.19860533423437185
7.401395208,0.19005874704972017,0.10865396310983383,-0.1676456998683508
7.411323208,0.20127788354783926,0.11456529451613515,-0.1371784854752383
7.421250208,0.2070778015779201,0.11784222048343895,-0.11095705799408122
7.431178208,0.20672285171731952,0.11827568150433575,-0.09182141320712311
7.441105208,0.2000129172646149,0.11576323529628037,-0.08157385011745716
7.451033208,0.1873632017577999,0.11037157056897542,-0.08103352608901691
7.460960208,0.16980797949905613,0.10239155697242955,-0.09021881112191801
7.470888208,0.1489202570366595,0.09237046006619785,-0.10858263011456716
7.480815208,0.1266533186579233,0.08110700976016341,-0.13522273624917333
7.490743208,0.10512355929890389,0.06959985762260944,-0.1690067911343635
7.500670208,0.08636470311252122,0.058949068957073546,-0.20858569623194062
7.510598208,0.07208953634148373,0.050221727499221346,-0.2523081490760935
7.520525208,0.06349525727509656,0.04430301388193045,-0.29808479751419215
7.530453208,0.061141826076157174,0.041760153571917945,-0.34327389196263997
7.540379208,0.0649197403316554,0.04274680751336793,-0.384666706324255
7.550307208,0.07410673409619507,0.0469695749459137,-0.4186366522828245
7.560234208,0.0874962339895837,0.05372712143038033,-0.44148052466774973
7.570162208,0.10356876742472242,0.06201792497929579,-0.4499293594265513
7.580089208,0.12067376890543757,0.07069774970388133,-0.4417524146363912
7.590017208,0.1371931138153785,0.07865648590914788,-0.4163364737633619
7.599944208,0.15166695357463506,0.08497942647368438,-0.37510710710012257
7.609872208,0.16287443426679096,0.08906212331994247,-0.3216745964739511
7.619799208,0.1698739398612497,0.09065986339427144,-0.26163212842948635
7.629727208,0.1720163911710069,0.08986930741566174,-0.20199751795154747
7.639654208,0.16894808709785542,0.08705603041505797,-0.15035791167068518
7.649581208,0.16061599538293633,0.08275240687383732,-0.1138351464572489
7.659509208,0.14728030323485866,0.07755246679639669,-0.09802662460674123
7.669436208,0.12952991405079908,0.07202478488775427,-0.10608714747968029
7.679364208,0.10828974114334168,0.06665471526722233,-0.13810101468567462
7.689291208,0.0848060416779105,0.061817274354056005,-0.19085470235465665
7.699219208,0.06059780192250496,0.05777463615085972,-0.2580647568591069
7.709146208,0.03736708649537895,0.05468927243002672,-0.33105064657088995
7.719074208,0.016867913943736636,0.05264526896566769,-0.3997765936727907
7.729001208,0.0007411106343118766,0.05167400137005012,-0.454128983338327
7.738929208,-0.009668831219947467,0.05178276955767233,-0.4852560190471858
7.748856208,-0.013491726164837715,0.05298423493769828,-0.4867814099937972
7.758784208,-0.010478416384455264,0.055321173325648856,-0.4557175277716699
7.768711208,-0.0010925486154433886,0.05887737053044474,-0.39294386600104647
7.778639208,0.013469985896103034,0.06376447167254587,-0.30317771423143325
7.788566208,0.031343664764493455,0.07007910361230414,-0.1944369793853606
7.798494208,0.05014016910238201,0.0778349357534312,-0.07706922266227738
7.808421208,0.0671735288305684,0.08688663769936619,0.03751605933796019
7.818349208,0.07974750181796463,0.09687077639821752,0.13823442293443405
7.828276208,0.08547694648864208,0.10718827385334552,0.21564433045318887
7.838204208,0.08260374233178375,0.1170438517708621,0.2630268112245118
7.848131208,0.07026202378466778,0.12554277614354092,0.2771018779613949
7.858059208,0.04865016725850143,0.13182871525817477,0.25831485323456443
7.867986208,0.019077964225814363,0.13523397258232578,0.21068595542494
7.877914208,-0.0161256910057828,0.1354090663358619,0.1412686485711275
7.887841208,-0.05383943407309356,0.1324035815748845,0.059300878040469115
7.897769208,-0.09048566105466901,0.12668194776520225,-0.0248430909337791
7.907696208,-0.12243587148336774,0.11907241274086393,-0.10078291037048924
7.917624208,-0.14643523600704508,0.11066115908050188,-0.15922869073625226
7.927551208,-0.1599940080900791,0.10265278443799004,-0.19293712415103018
7.937479208,-0.16169726060523634,0.09622105798289537,-0.19743490759084187
7.947406208,-0.15139431015096463,0.09237047168373828,-0.1714381021358332
7.957334208,-0.13024443824788723,0.09182283292695048,-0.11692587390687077
7.967261208,-0.10061370951082109,0.09493783447868864,-0.03886527413303831
7.977189208,-0.0658350974461049,0.10167399698313637,0.05537522138519044
7.987116208,-0.02985816326449894,0.11159523277187765,0.15685016223420256
7.997044208,0.0031749497849401474,0.12392526596259935,0.25600310730809217
8.006971208,0.029382562215355634,0.1376450065799573,0.3436690583474019
8.016899208,0.045575823283227235,0.15161801672659997,0.412012029982787
8.026826208,0.049620038170717765,0.16472132542246817,0.4553085156376091
8.036754208,0.04068043535930995,0.17595822315401113,0.4705049088178617
8.046681208,0.019321051376045586,0.18453750608294406,0.457498554129142
8.056609208,-0.012555456690697193,0.18991605917292567,0.41911774044944733
8.066536208,-0.05191785611097938,0.1918125360402746,0.360803659344112
8.076464208,-0.09493779825437841,0.19020471850818935,0.2900234465709832
8.086391208,-0.13740070598750845,0.18532123099204534,0.2154651066241021
8.096319208,-0.1751477749612915,0.17763238400009748,0.14608302429103165
8.106246208,-0.20450120227064855,0.16783880454067532,0.09008003381628032
8.116174208,-0.22263027405221578,0.1568524476861856,0.05392973833669026
8.126101208,-0.22782484590391808,0.14576268864193928,0.0415560593949095
8.136029208,-0.21965401103496485,0.1357797598959686,0.053786466675021134
8.145956208,-0.19900044266741107,0.12814894177019442,0.08817359933339061
8.155884208,-0.167973053401324,0.12403301170753704,0.13923713525780335
8.165811208,-0.12970979293173207,0.1243687700107903,0.19912111953639364
8.175739208,-0.08808776876524226,0.1297148573761865,0.2586016515038019
8.185666208,-0.04736105446469182,0.14011824954422725,0.308324942270531
8.195594208,-0.011750418436598468,0.15503062555668848,0.3401135185706738
8.205521208,0.014984333657421139,0.17330094992515815,0.348155326438605
8.215449208,0.0299507240166635,0.19325872684259457,0.329893290584553
8.225376208,0.031464392588907056,0.2128869353384476,0.28646615917845514
8.235304208,0.019280650888642725,0.23006746614834492,0.22261390105525625
8.245231208,-0.005318926736394442,0.24286681977032953,0.1460432416595982
8.255158208,-0.039606799064462926,0.24981818507648174,0.0663361701360746
8.265086208,-0.07966084638602731,0.2501513473923042,-0.006439745288216495
8.275013208,-0.12077059956516067,0.2439273454599043,-0.06320945134570724
8.284941208,-0.15796001899754095,0.23205037555982228,-0.09723057594146405
8.294868208,-0.18656791456764293,0.21615120517621547,-0.10509053910039046
8.304796208,-0.20281304934131147,0.19835865153959528,-0.08721087819338087
8.314723208,-0.20426832902490652,0.18099383227133267,-0.0477881789619136
8.324651208,-0.19017885790525668,0.16623368231718055,0.005811322492672088
8.334578208,-0.1615795901451548,0.15579535020055404,0.06410580301123368
8.344506208,-0.12119487408595081,0.15069119053729987,0.11684133411926166
8.354433208,-0.07312969854630268,0.15109396002283737,0.15442959838373124
8.364361208,-0.022388244536079648,0.15633331407373147,0.16927664383449814
8.374288208,0.025722062815682838,0.16502089026559522,0.15681901416552058
8.384216208,0.06622579602970355,0.17527827421973696,0.11612834938796336
8.394143208,0.09507119307801087,0.18502612801080917,0.05001050090115636
8.404071208,0.1096002679623476,0.19228658683415922,-0.03539870324890409
8.413998208,0.10883684017888298,0.19545356197839478,-0.13146471231320742
8.423926208,0.09355832528887174,0.1934940224060494,-0.2281780970122427
8.433853208,0.06614710966260237,0.186055671624237,-0.31540515251627044
8.443781208,0.030246454111805963,0.17347168116971443,-0.3840979424788946
8.453708208,-0.0097289822096269,0.15666984314670684,-0.4273202032370947
8.463636208,-0.04915958005202379,0.13700881172449594,-0.4409845911738752
8.473563208,-0.08378725851392649,0.11607428398968105,-0.4242404800326748
8.483491208,-0.11020842259869418,0.0954702406925062,-0.3794925357919127
8.493418208,-0.1262342044830056,0.07663474886967267,-0.31206612804752315
8.503346208,-0.13108118699873927,0.06069936024707223,-0.22956690801415242
8.513273208,-0.1253811558564608,0.048400107364498575,-0.14100906683212086
8.523201208,-0.11102196118799128,0.04003979873412979,-0.05580836684603923
8.533128208,-0.09085003279594552,0.03549690126896618,0.017250862978797386
8.543056708,-0.06827750441475838,0.0342748991272379,0.07096340956274445
8.552983708,-0.046843944604743115,0.03558573523834137,0.10046369017655873
8.562911708,-0.02978513358178271,0.03846018907619016,0.10371742838220094
8.572838708,-0.01965872472683076,0.041876139498582224,0.08169166275281879
8.582766708,-0.018068041854532087,0.044892659041323016,0.03818535635546875
8.592693708,-0.02551130542576066,0.046774668669370634,-0.02065880084947178
8.602621708,-0.04136695472203061,0.047091122793489766,-0.08710330775118855
8.612548708,-0.06400953652113252,0.04577092424766165,-0.15273563693380138
8.622476708,-0.09103677686888047,0.04310552171517196,-0.209447845730595
8.632403708,-0.11957756805243203,0.03969491340412604,-0.2503577554752884
8.642331708,-0.14664278777175319,0.03634319846133852,-0.2705612321695228
8.652258708,-0.16947646032167224,0.03391885812980095,-0.26762671237117575
8.662186708,-0.1858646054333193,0.03320144173268953,-0.24177614105269854
8.672113708,-0.1943641895396443,0.03473865958332434,-0.1957377253015137
8.682041708,-0.19442529009794163,0.03873579984423644,-0.13430061422784176
8.691968708,-0.1863947759920873,0.04499431602085893,-0.06364290780499858
8.701895708,-0.17140663119258243,0.052910241667646206,0.009465463680517134
