Time (s),Acceleration x (m/s^2),Acceleration y (m/s^2),Acceleration z (m/s^2)
4.003336686,-4.831109047,-6.446264267,-3.007778168
4.008091686,-4.599005222,-6.321837425,-3.259024382
4.012846686,-4.436293125,-6.147161484,-3.560520172
4.017601738,-4.316651821,-5.907878876,-3.744767427
4.022356738,-4.14197588,-5.678168297,-3.914657831
4.027111738,-3.897907972,-5.434100151,-4.065405846
4.031866738,-3.677768469,-5.185246468,-4.213760853
4.036621738,-3.474378586,-4.878965378,-4.223331928
4.04137679,-3.330809116,-4.680361271,-4.187439442
4.04613179,-3.230310678,-4.52482748,-4.082155228
4.05088679,-3.18006134,-4.381258488,-3.969692707
4.05564179,-3.127419233,-4.266402721,-3.950550079
4.06039679,-3.000599623,-4.189832687,-3.761517286
4.065151842,-2.87856555,-4.086941242,-3.558127165
4.069906842,-2.897708178,-4.036691666,-3.366701365
4.074661842,-2.888136864,-3.960121393,-3.26141715
4.079416842,-2.895315409,-3.845266104,-3.14895463
4.084171842,-2.849851847,-3.742374659,-2.823530674
4.088926842,-2.842673302,-3.720839262,-2.512463808
4.093681894,-2.921636343,-3.780659676,-2.533999205
4.098436894,-3.08434844,-3.945764542,-2.610569477
4.103191894,-3.158525944,-4.120440483,-2.533999205
4.107946894,-3.192025423,-4.302295208,-2.464607239
4.112701946,-3.16570425,-4.546362877,-2.356930256
4.117456946,-3.153740168,-4.733003139,-2.199003935
4.122211946,-3.163311481,-4.893322468,-2.11046958
4.126966946,-3.117847919,-5.048855782,-2.007578135
4.131721946,-3.079562664,-5.187639713,-1.883151412
4.136476946,-3.03888464,-5.324030399,-1.880758643
4.141231998,-2.986242771,-5.462814331,-1.746760488
4.145986998,-2.876172781,-5.816951752,-1.179661512
4.150741998,-2.68713975,-6.089733601,-0.9762716293
4.155496998,-2.476571321,-6.159125328,-1.256231904
4.16025205,-2.337787628,-6.295516491,-1.318445325
4.16500705,-2.222932339,-6.477370739,-1.385444283
4.16976205,-2.218146563,-6.573083878,-1.172483087
4.17451705,-2.36650157,-6.467799664,-0.94277215
4.17927205,-2.440679073,-6.43908596,-0.7178468108
4.184027102,-2.423929453,-6.491727829,-0.5312066078
4.188782102,-2.352144718,-6.541976929,-0.4953143001
4.193537102,-2.39760828,-6.637690067,-0.6149554253
4.198292102,-2.545963287,-6.668796539,-0.8207381964
4.203047154,-2.691925526,-6.728617191,-1.028913736
4.207802154,-2.720639229,-6.955935478,-1.24666059
4.212557154,-2.727817774,-7.178467751,-1.739582062
4.217312154,-2.694318295,-7.422535896,-2.519642353
4.222067154,-2.596212626,-7.812565804,-3.098705292
4.226822207,-2.409572363,-8.41077137,-3.352344513
4.231577207,-2.385644197,-8.702695847,-3.385843992
4.236332207,-2.409572363,-8.638090134,-3.251846075
4.241087207,-2.46221447,-8.286344528,-2.981456995
4.245842259,-2.072184324,-8.185846329,-2.615355253
4.250597259,-1.483550072,-8.142775536,-2.069791555
4.255352259,-0.8638089895,-8.140382767,-1.490728498
4.260107259,-0.7465606928,-7.755138397,-0.9954141974
4.264862311,-0.9523434043,-8.066205025,-0.679561615
4.269617311,-2.725425005,-10.28195858,-0.5216353536
4.274372311,-4.98903513,-13.36391449,-0.5383850932
4.279127311,-4.78085947,-16.59901047,-0.2129612118
4.283882311,-5.441278458,-19.3770771,-0.9379864931
4.288637363,-8.145168304,-22.83470726,-1.552941918
4.293392363,-10.41835022,-25.91187668,-1.952543259
4.298147363,-11.25583744,-27.68256569,-2.500499725
4.302902415,-11.91147137,-28.86462021,-2.785245657
4.307657415,-11.33480072,-28.50330353,-2.983849764
4.312412415,-9.200403214,-24.54318237,-2.993421078
4.317167415,-6.678368092,-18.89851379,-3.125026464
4.321922467,-3.699303865,-15.5054903,-3.122633457
4.326677467,-1.232303619,-12.95713425,-2.830709219
4.331432467,3.608376503,-6.058627129,-0.09571290761
4.336187467,3.675375462,-6.441478729,-0.1004985496
4.340942519,3.184846878,-6.451049805,-0.4905286431
4.345697519,2.246860504,-6.654439926,-1.012163997
4.350452519,1.131805062,-6.943971157,-1.727617979
4.355207519,0.1124626622,-6.850651264,-2.567498684
4.359962571,-1.115055323,-7.348358154,-3.072384357
4.364717571,-1.85443759,-8.635697365,-3.24466753
4.369472571,-2.691925526,-9.535398483,-2.976671457
4.374227571,-3.464807272,-9.753145218,-2.474178553
4.378982623,-3.701696634,-9.628718376,-1.990828395
4.383737623,-3.445664644,-9.487542152,-1.564906001
4.388492623,-2.993421078,-9.41336441,-1.241874933
4.393247675,-2.62253356,-9.427721024,-0.9762716293
4.398002675,-2.347358942,-9.487542152,-0.7776673436
4.402757675,-2.053041935,-9.406186104,-0.7992027402
4.407512675,-1.840080619,-9.293723106,-0.8590233326
4.412267727,-1.947757602,-9.46361351,-0.8350951076
4.417022727,-2.029113531,-9.533005714,-0.8685946465
4.421777727,-2.033899307,-9.525827408,-1.088734269
4.426532727,-2.04586339,-9.600004196,-1.562513232
4.431287779,-2.210968018,-9.970891953,-2.285145521
4.436042779,-2.191825628,-9.994820595,-2.464607239
4.440797779,-2.103291035,-9.559326172,-2.122433662
4.445552832,-2.117648125,-9.176474571,-1.811366796
4.450307832,-2.160718918,-8.827122688,-1.55054903
4.455062832,-2.254039049,-8.446663857,-1.172483087
4.459817832,-2.328216314,-8.037490845,-0.7800601721
4.464572884,-2.402393818,-7.67138958,-0.4785645306
4.469327884,-2.505285263,-7.357929707,-0.2536391914
4.474082884,-2.610569477,-7.159325123,-0.1028913707
4.478837936,-2.70149684,-7.063612461,-0.007178467698
4.483592936,-2.816352367,-7.073183537,-0.01196411345
4.488347936,-2.98863554,-7.121040344,-0.05503492057
4.493102988,-3.168097258,-7.278966427,-0.1579262912
4.497857988,-3.321237803,-7.408178806,-0.2967100143
4.502612988,-3.448057413,-7.580461979,-0.4666004181
4.507367988,-3.603590965,-7.709674358,-0.6101697683
4.51212304,-3.720839262,-7.791030407,-0.7345965505
4.51687804,-3.8213377,-7.860422611,-0.8781659007
4.52163304,-3.950550079,-8.027919769,-1.117448211
4.526388092,-4.036691666,-8.185846329,-1.339980721
4.531143092,-4.118047714,-8.322237015,-1.548156261
4.535898092,-4.146761417,-8.413164139,-1.730010748
4.540653144,-4.115654945,-8.470592499,-1.85443759
4.545408144,-4.065405846,-8.477770805,-1.971685886
4.550163144,-3.905086517,-8.477770805,-1.993221283
4.554918196,-3.716053486,-8.453842163,-1.971685886
4.559673196,-3.56530571,-8.394021988,-1.861616015
4.564428196,-3.421736479,-8.252845764,-1.708475351
4.569183196,-3.345165968,-8.152346611,-1.512263894
4.573938248,-3.254238844,-8.027919769,-1.270588875
4.578693248,-3.117847919,-7.939385414,-1.098305583
4.5834483,-3.014956474,-7.910671711,-0.9379864931
4.5882033,-2.971885681,-7.86281538,-0.8063812256
4.5929583,-2.983849764,-7.843672752,-0.6652047038
4.5977133,-3.046063185,-7.819744587,-0.4905286431
4.602468352,-3.206382275,-7.781459332,-0.2943171859
4.607223352,-3.259024382,-7.846065521,-0.1507478207
4.611978352,-3.098705292,-8.0757761,-0.1363908947
4.616733404,-2.818745136,-8.305487633,-0.1244267747
4.621488404,-2.644068956,-8.494520187,-0.1890329868
4.626243404,-2.502892494,-8.719446182,-0.3110669553
4.630998457,-2.411965132,-8.915657043,-0.3732803464
4.635753457,-2.309073925,-9.085547447,-0.4450650215
4.640508457,-2.203789711,-9.31525898,-0.6532405615
4.645263509,-2.256431818,-9.530612946,-1.031306505
4.650018509,-2.414358139,-9.731609344,-1.442872047
4.654773509,-2.591426849,-9.803394318,-1.828116536
4.659528561,-2.73260355,-9.623932838,-2.139183521
4.664283561,-2.842673302,-9.346364975,-2.383251429
4.669038561,-2.952743053,-9.068798065,-2.548356056
4.673793613,-3.026920557,-8.853444099,-2.598605394
4.678548613,-2.998206854,-8.714659691,-2.411965132
4.683303613,-2.883351326,-8.721838951,-2.155933142
4.688058665,-2.514856577,-8.683553696,-1.986042738
4.692813665,-2.199003935,-8.614161491,-1.8855443
4.697568665,-2.167897224,-8.64526844,-1.892722726
4.702323717,-2.36650157,-8.738588333,-1.909472466
4.707078717,-2.651247501,-8.786444664,-1.844866276
4.711833717,-2.914458036,-8.851051331,-1.756331801
4.716588769,-3.129812002,-8.836693764,-1.694118381
4.721343769,-3.330809116,-8.755337715,-1.701296926
4.726098821,-3.416950703,-8.72423172,-1.701296926
4.730853821,-3.476771355,-8.71705246,-1.694118381
4.735608821,-3.481556892,-8.664410591,-1.64626193
4.740363873,-3.476771355,-8.628518105,-1.615155339
4.745118873,-3.491128206,-8.585447311,-1.574477315
4.749873873,-3.483949661,-8.544769287,-1.540977836
4.754628925,-3.486342669,-8.496912956,-1.533799291
4.759383925,-3.483949661,-8.432307243,-1.531406522
4.764138977,-3.474378586,-8.374878883,-1.533799291
4.768893977,-3.536591768,-8.319844246,-1.574477315
4.773648977,-3.553341627,-8.260024071,-1.605584025
4.778404029,-3.56530571,-8.207381248,-1.627119422
4.783159029,-3.560520172,-8.145168304,-1.64626193
4.787914029,-3.524627686,-8.137989998,-1.706082582
4.792669082,-3.476771355,-8.123632431,-1.730010748
4.797424082,-3.421736479,-8.142775536,-1.761117458
4.802179134,-3.438486099,-8.140382767,-1.780260086
4.806934134,-3.443271875,-8.145168304,-1.770688772
4.811689134,-3.443271875,-8.166703224,-1.751546144
4.816444186,-3.483949661,-8.169096947,-1.720439434
4.821199186,-3.548556089,-8.142775536,-1.653440475
4.825954238,-3.567698479,-8.188239098,-1.682154298
4.830709238,-3.550948858,-8.23370266,-1.677368641
4.835464238,-3.546163082,-8.267202377,-1.706082582
4.84021929,-3.598805189,-8.322237015,-1.730010748
4.84497429,-3.672982693,-8.391629219,-1.746760488
4.84972929,-3.704089403,-8.434700012,-1.818545222
4.854484342,-3.792623997,-8.501698494,-1.907079697
4.859239342,-3.873979807,-8.539983749,-1.945364833
4.863994342,-3.93140769,-8.597412109,-2.029113531
4.868749394,-4.010370731,-8.638090134,-2.160718918
4.873504394,-4.070191383,-8.662017822,-2.313859463
4.878259446,-4.144368649,-8.702695847,-2.457428932
4.883014446,-4.189832687,-8.784051895,-2.598605394
4.887769446,-4.242474556,-8.815158844,-2.742174864
4.892524498,-4.280759811,-8.886942863,-2.890529871
4.897279498,-4.33340168,-8.961120605,-3.034099102
4.90203455,-4.338187218,-9.008976936,-3.206382275
4.90678955,-4.33340168,-9.066405296,-3.395415306
4.91154455,-4.345366001,-9.109476089,-3.586841106
4.916299602,-4.354937077,-9.183652878,-3.809373617
4.921054602,-4.366901398,-9.224330902,-4.058227062
4.925809654,-4.354937077,-9.238688469,-4.359723091
4.930564654,-4.295116425,-9.281759262,-4.625326157
4.935319707,-4.187439442,-9.360722542,-4.900500774
4.940074707,-4.005585194,-9.537791252,-5.070391178
4.944829707,-3.795016766,-9.707681656,-5.075176716
4.949584759,-3.457628727,-9.961320877,-5.032105923
4.954339759,-3.129812002,-10.21735287,-5.053641319
4.959094811,-2.742174864,-10.40877819,-4.993820667
4.963849811,-2.325823545,-10.53081226,-4.642076015
4.968604811,-1.777867198,-10.48774147,-4.278367043
4.973359863,-1.146162033,-10.35135078,-3.694518089
4.978114863,-0.5168496966,-10.04267693,-2.756531715
4.982869915,-0.0143569354,-9.650253296,-1.636690736
4.987624915,0.2464607358,-9.174081802,-0.5072783828
4.992379967,0.342173636,-8.781659126,0.4689932466
4.997134967,0.2368894368,-8.358129501,1.344766378
5.001889967,-0.02153540403,-7.944170952,2.069791555
5.006645019,-0.3828516304,-7.556533813,2.656033039
5.011400019,-0.7369893789,-7.089933395,2.940778971
5.016155071,-1.098305583,-6.55394125,2.854637384
5.020910071,-1.536192179,-5.88395071,2.464607239
5.025665071,-2.057827473,-5.271388054,1.653440475
5.030420123,-2.57228446,-4.735395908,0.6771687865
5.035175123,-3.16570425,-4.34775877,-0.457029134
5.039930175,-3.708875179,-4.115654945,-1.753939033
5.044685175,-4.208974838,-4.127619267,-2.971885681
5.049440227,-4.572684288,-4.376472473,-3.840480328
5.054195227,-4.886143684,-4.766502857,-4.244867325
5.058950279,-5.120640278,-5.175675392,-4.15633297
5.063705279,-5.24506712,-5.625525951,-3.651447296
5.068460279,-5.314459324,-6.163911343,-2.945564747
5.073215332,-5.319244862,-6.73100996,-2.199003935
5.077970332,-5.223531723,-7.259823799,-1.529013634
5.082725384,-5.096712112,-7.740781307,-1.000199914
5.087480384,-4.902893543,-8.149953842,-0.7393822074
5.092235436,-4.613361835,-8.382058144,-0.7537391186
5.096990436,-4.230510235,-8.523234367,-0.9451649189
5.101745488,-3.816552162,-8.523234367,-1.232303619
5.106500488,-3.40498662,-8.374878883,-1.51944232
5.111255488,-3.014956474,-8.200202942,-1.804188251
5.11601054,-2.790031195,-7.975277901,-2.079362869
5.12076554,-2.65364027,-7.76949501,-2.321038008
5.125520592,-2.600998163,-7.563712597,-2.498106956
5.130275592,-2.620140791,-7.420143127,-2.593819857
5.135030644,-2.71824646,-7.295716286,-2.677568436
5.139785644,-2.871387243,-7.214360237,-2.675175667
5.144540696,-2.993421078,-7.156932354,-2.641676188
5.149295696,-3.151347399,-7.137789726,-2.565105915
5.154050748,-3.239881754,-7.128218651,-2.507678032
5.158805748,-3.227917671,-7.176074982,-2.467000246
5.163560748,-3.115455151,-7.235895634,-2.447857618
5.1683158,-2.90967226,-7.238288403,-2.467000246
5.1730708,-2.675175667,-7.274180889,-2.519642353
5.177825852,-2.46221447,-7.369893551,-2.577069998
5.182580852,-2.289931297,-7.446464062,-2.591426849
5.187335904,-2.153540373,-7.534998417,-2.663211584
5.192090904,-2.029113531,-7.618747234,-2.715853691
5.196845957,-1.95015049,-7.640282631,-2.739781857
5.201600957,-1.940579176,-7.630711555,-2.804388046
5.206356009,-1.971685886,-7.604390144,-2.912065268
5.211111009,-2.029113531,-7.594819069,-3.077169895
5.215866061,-2.139183521,-7.537391186,-3.270988464
5.220621061,-2.258824587,-7.515855789,-3.46959281
5.225376113,-2.313859463,-7.453642368,-3.6299119
5.230131113,-2.428714991,-7.441678524,-3.7710886
5.234886113,-2.445464849,-7.446464062,-3.775874138
5.239641165,-2.443071842,-7.465606689,-3.720839262
5.244396217,-2.507678032,-7.561319351,-3.594019651
5.249151217,-2.512463808,-7.719245911,-3.433700562
5.253906217,-2.591426849,-7.91306448,-3.302095175
5.258661269,-2.74935317,-8.195417404,-3.110669374
5.263416321,-2.90967226,-8.556734085,-2.864208698
5.268171321,-2.986242771,-8.925228119,-2.608176708
5.272926321,-3.074777126,-9.272188187,-2.352144718
5.277681373,-3.08434844,-9.655039787,-2.088934183
5.282436373,-3.136990547,-10.02831936,-1.892722726
5.287191425,-3.153740168,-10.37527943,-1.768295884
5.291946477,-3.282952785,-10.66481018,-1.677368641
5.296701477,-3.40498662,-10.94955635,-1.639083505
5.301456477,-3.522234917,-11.16251755,-1.727617979
5.306211529,-3.649054527,-11.3132658,-1.895115495
5.310966582,-3.704089403,-11.35633659,-2.134397745
5.315721582,-3.773481369,-11.27258778,-2.467000246
5.320476582,-3.873979807,-11.01177025,-2.876172781
5.325231634,-3.979264021,-10.61695385,-3.342773199
5.329986634,-4.019941807,-10.12403297,-3.751945972
5.334741686,-4.015156269,-9.573683739,-4.084548473
5.339496686,-3.957728624,-9.075976372,-4.323830605
5.344251738,-3.873979807,-8.640482903,-4.486542225
5.34900679,-3.706482172,-8.300702095,-4.52482748
5.35376179,-3.524627686,-8.049455643,-4.455435753
5.35851679,-3.34038043,-7.889136314,-4.290330887
5.363271842,-3.14895463,-7.800601959,-4.034298897
5.368026842,-2.952743053,-7.757531166,-3.761517286
5.372781894,-2.715853691,-7.774280548,-3.462414265
5.377536946,-2.486142635,-7.793423176,-3.203989506
5.382291946,-2.289931297,-7.865208149,-2.947957516
5.387046998,-2.120040894,-7.958528042,-2.703889608
5.391801998,-1.9812572,-8.0757761,-2.481357098
5.39655705,-1.840080619,-8.190631866,-2.263610125
5.40131205,-1.749153376,-8.350951195,-2.038684845
5.406067102,-1.658226132,-8.516056061,-1.811366796
5.410822102,-1.531406522,-8.678768158,-1.567298889
5.415577154,-1.483550072,-8.848658562,-1.349551916
5.420332154,-1.442872047,-8.999405861,-1.177268744
5.425087207,-1.564906001,-9.121439934,-0.9978070259
5.429842207,-1.785045743,-9.193224907,-0.8542376757
5.434597259,-1.99800694,-9.238688469,-0.7154539824
5.439352259,-2.27078867,-9.219545364,-0.6197410822
5.444107311,-2.545963287,-9.159725189,-0.5766702294
5.448862311,-2.65364027,-9.09990406,-0.5335994363
5.453617363,-2.770888567,-9.032905579,-0.4977070987
5.458372363,-2.928814888,-8.930013657,-0.5192425251
5.463127415,-3.187239647,-8.803194046,-0.5024927258
5.467882415,-3.273381472,-8.719446182,-0.5359922647
5.472637467,-3.416950703,-8.554341316,-0.5934200287
5.477392467,-3.543770313,-8.432307243,-0.6412764788
5.482147519,-3.601198196,-8.276773453,-0.7178468108
5.486902571,-3.620340586,-8.157132149,-0.8709874153
5.491657571,-3.639483213,-8.056633949,-1.021735311
5.496412623,-3.696911097,-7.975277901,-1.220339537
5.501167623,-3.672982693,-7.901100159,-1.392622828
5.505922675,-3.639483213,-7.858029366,-1.639083505
5.510677675,-3.689732552,-7.853243828,-1.864008784
5.515432727,-3.790230989,-7.858029366,-2.074577332
5.520187727,-3.847658873,-7.879564762,-2.263610125
5.524942779,-3.93140769,-7.889136314,-2.481357098
5.529697779,-4.029513359,-7.869993687,-2.658426046
5.534452832,-4.127619267,-7.874779224,-2.801995277
5.539207884,-4.242474556,-7.884350777,-2.938386202
5.543962884,-4.292723656,-7.953742504,-3.01974225
5.548717936,-4.299902439,-8.039883614,-3.041277647
5.553472936,-4.223331928,-8.128418922,-3.007778168
5.558227988,-4.14197588,-8.245666504,-2.885744095
5.562982988,-4.019941807,-8.367700577,-2.715853691
5.56773804,-3.864408493,-8.496912956,-2.510071039
5.57249304,-3.811766386,-8.621339798,-2.263610125
5.577248092,-3.730410576,-8.736195564,-2.029113531
5.582003144,-3.625126362,-8.800801277,-1.782652855
5.586758144,-3.481556892,-8.863015175,-1.55054903
5.591513196,-3.249453068,-8.879764557,-1.32801652
5.596268196,-3.046063185,-8.882157326,-1.122233868
5.601023248,-2.773281336,-8.815158844,-0.9092726111
5.605778248,-2.478964329,-8.721838951,-0.7657032609
5.6105333,-2.321038008,-8.654839516,-0.6723831892
5.615288352,-2.507678032,-8.650053978,-0.5910272002
5.620043352,-2.833101988,-8.690732002,-0.4378865361
5.624798404,-2.845066071,-8.635697365,-0.2823530734
5.629553404,-2.794816732,-8.537590981,-0.04067798331
5.634308457,-2.785245657,-8.494520187,0.1220339537
5.639063457,-2.770888567,-8.449056625,0.1124626622
5.643818509,-2.82831645,-8.43948555,0.009571290575
5.648573509,-2.945564747,-8.511270523,-0.04067798331
5.653328561,-3.117847919,-8.583054543,-0.09810572863
5.658083613,-3.333201885,-8.654839516,-0.1411765367
5.662838613,-3.460021496,-8.702695847,-0.2081755698
5.667593665,-3.512663603,-8.755337715,-0.2703889608
5.672348665,-3.476771355,-8.836693764,-0.3996013701
5.677103717,-3.419343472,-8.953942299,-0.5838487148
5.681858769,-3.347558975,-9.111868858,-0.7896314859
5.686613769,-3.273381472,-9.272188187,-1.002592683
5.691368821,-3.189632654,-9.41336441,-1.217946768
5.696123821,-3.007778168,-9.518648148,-1.459621787
5.700878873,-2.761317253,-9.595218658,-1.727617979
5.705633873,-2.500499725,-9.645467758,-2.005185366
5.710388925,-2.778067112,-9.899106979,-2.246860504
5.715143977,-2.761317253,-10.08574772,-2.517249346
5.719898977,-2.132004976,-10.03071213,-2.885744095
5.724654029,-0.7369893789,-9.643074989,-3.321237803
5.729409029,-0.8638089895,-9.82732296,-3.464807272
5.734164082,-1.832902193,-10.17428207,-3.443271875
5.738919134,-2.837887764,-10.59063339,-3.280559778
5.743674134,-3.785445452,-11.08355427,-3.012563705
5.748429186,-3.85244441,-11.28933716,-2.861815929
5.753184186,-3.266202927,-11.14576817,-2.651247501
5.757939238,-2.711068153,-11.04048347,-2.361716032
5.76269429,-0.3972085714,-10.01396275,-2.490928411
5.76744929,0.2584248483,-9.683753014,-2.390429735
5.772204342,-0.03110669367,-9.499505997,-2.244467735
5.776959342,-0.9547362328,-9.430113792,-2.055434704
5.781714394,-1.859223247,-9.375079155,-1.978864312
5.786469446,-2.589034081,-9.329615593,-1.883151412
5.791224446,-2.986242771,-9.255437851,-1.706082582
5.795979498,-3.067598581,-9.092725754,-1.442872047
5.800734498,-3.029313564,-8.84387207,-1.201196909
5.80548955,-2.981456995,-8.638090134,-1.014556766
5.810244602,-2.854637384,-8.379665375,-0.9523434043
5.814999602,-2.754138947,-8.135597229,-1.016949654
5.819754654,-2.74935317,-7.944170952,-1.088734269
5.824509707,-2.79720974,-7.791030407,-1.179661512
5.829264707,-2.916850805,-7.692924976,-1.385444283
5.834019759,-3.014956474,-7.60678339,-1.586441398
5.838774759,-3.215953588,-7.563712597,-1.801795483
5.843529811,-3.495913982,-7.575676441,-2.043470621
5.848284863,-3.747160196,-7.6426754,-2.244467735
5.853039863,-4.005585194,-7.635497093,-2.435893536
5.857794915,-4.247260094,-7.67138958,-2.593819857
