Time (s),Acceleration x (m/s^2),Acceleration y (m/s^2),Acceleration z (m/s^2)
10.00165762,1.727617979,1.289731383,-6.24766016
10.00641189,0.5048855543,0.342173636,-5.546562672
10.01116616,-0.0,-0.2105683982,-3.818944931
10.01592043,-0.05503492057,-0.4642075896,-1.813759565
10.0206747,0.2775674164,-0.6149554253,-0.4283152521
10.02542903,0.5623133183,-0.7106683254,0.4642075896
10.0301833,0.6747759581,-0.8446664214,1.237089276
10.03493757,0.9140582681,-1.088734269,1.739582062
10.03969184,1.229910851,-1.500299811,2.005185366
10.04444611,1.942971945,-2.201396942,2.170290232
10.04920038,2.900100946,-3.151347399,2.081755638
10.05395465,3.99601388,-4.42672205,2.112862349
10.05870892,5.187639713,-6.197410583,2.210968018
10.06346319,7.039684296,-8.889336586,2.239681959
10.06821746,10.33699417,-13.75155163,2.20618248
10.07297174,15.01735497,-20.97548294,3.108276606
10.077726,20.93480492,-31.43451118,4.158725739
10.08248033,24.65803719,-44.30789566,-1.995614052
10.0872346,26.85464859,-61.62236023,-5.783452511
10.09198887,21.62633133,-70.72944641,-2.76371026
10.09674314,11.59801102,-73.62715149,1.184447169
10.10149741,1.861616015,-73.90471649,5.166104317
10.10625168,-3.184846878,-74.56513977,8.444271088
10.11100595,-7.331608772,-73.74679565,9.198010445
10.11576022,-10.45424175,-67.66423798,6.642475605
10.1205145,-10.08335495,-56.92525101,3.450450182
10.12526877,-9.415757179,-45.32245255,0.1770688742
10.13002304,-8.216953278,-35.39223862,-2.46221447
10.13477736,-6.886543751,-27.75674248,-4.28315258
10.13953158,-5.45085001,-21.68136597,-4.486542225
10.1442859,-4.335794449,-16.83589935,-3.620340586
10.14904017,-3.163311481,-13.03609753,-3.089133978
10.15379444,-1.847259045,-10.12881851,-2.964707375
10.15854871,-0.8015955687,-7.925028801,-2.617748022
10.16330299,-0.2488535494,-6.242874146,-2.361716032
10.16805726,0.2225325108,-4.814359188,-1.947757602
10.17281153,0.4785645306,-3.66101861,-1.670190215
10.1775658,0.3876372576,-2.868994236,-1.249053478
10.18232007,-0.002392822644,-2.400001049,-1.012163997
10.18707434,-0.4402793646,-1.782652855,-0.2488535494
10.19182861,-0.7058826685,-1.335195065,0.9116654396
10.19658288,-1.277767301,-0.9092726111,2.344966173
10.20133715,-1.785045743,-0.7274180651,2.993421078
10.20609142,-2.20618248,-0.732203722,3.354737282
10.21084574,-2.746960402,-0.7274180651,3.637090445
10.21560002,-3.077169895,-0.8709874153,3.778266907
10.22035429,-3.192025423,-0.9116654396,3.943371773
10.22510856,-3.333201885,-0.9092726111,4.146761417
10.22986283,-3.419343472,-0.8757730722,4.14197588
10.2346171,-3.814159393,-0.7393822074,4.046263218
10.23937137,-3.984049797,-0.4929214716,3.792623997
10.24412564,-4.0127635,-0.1938186288,3.582055569
10.24887991,-4.108476639,0.1387837082,3.421736479
10.25363418,-4.118047714,0.4498506486,3.328416348
10.25838845,-4.0127635,0.7417750359,3.077169895
10.26314272,-3.787838221,1.081555843,2.727817774
10.267897,-3.668197155,1.560120344,2.280359983
10.27265127,-3.56530571,2.031506538,1.976471543
10.27740554,-3.553341627,2.651247501,1.34237349
10.28215981,-4.383651257,4.488935471,-4.512863636
10.28691408,-5.453242779,6.510870457,-15.498312
10.2916684,-5.443671703,7.802994728,-20.48256111
10.29642267,-4.570291042,8.456234932,-18.73101616
10.30117694,-3.412165165,8.906085968,-16.20419502
10.30593121,-1.442872047,9.116654396,-14.9527483
10.31068548,0.9260223508,8.817551613,-12.42832088
10.31543976,3.268595695,7.901100159,-7.207181931
10.32019403,5.536991596,6.343372822,-1.942971945
10.3249483,7.664210796,4.053441525,1.734796405
10.32970257,9.253045082,1.861616015,3.414557934
10.33445684,9.753145218,0.01674975827,3.895515203
10.33921111,9.427721024,-1.284945726,3.991228104
10.34396538,8.824729919,-2.041077614,3.763910055
10.34871965,7.984848976,-2.380858421,3.93140769
10.35347392,6.628118515,-2.574677229,4.984249592
10.35822819,4.993820667,-2.627319336,5.946164131
10.36298246,3.388236761,-2.581855536,6.326622963
10.36773674,1.832902193,-2.46221447,5.575276852
10.372491,0.7154539824,-2.27078867,4.137190342
10.37724528,0.1435693651,-2.117648125,2.766103029
10.38199955,-0.08614161611,-2.041077614,1.552941918
10.38675382,-0.1220339537,-2.203789711,-0.5096712112
10.39150814,0.1483550072,-2.792423964,-3.926621914
10.39626236,0.433100909,-3.08434844,-3.139383316
10.40101668,0.2225325108,-3.098705292,0.4737788737
10.40577095,-0.8733802438,-6.049055576,2.569891453
10.41052522,1.349551916,-17.14936066,1.596012712
10.4152795,2.172683001,-27.67538643,-0.2943171859
10.42003377,1.722832322,-34.84428406,-1.55054903
10.42478804,1.741974831,-38.83790588,-1.16769743
10.42954231,-0.6460621357,-40.96990967,-0.5790630579
10.43429658,-4.98903513,-41.07519531,6.707081795
10.43905085,-8.437092781,-36.80639648,5.991627693
10.44380512,-9.69093132,-30.15435028,6.525227547
10.44855939,-9.353543282,-25.13899422,5.848058701
10.45331366,-8.633303642,-22.76292229,2.912065268
10.45806793,-7.214360237,-21.38226318,0.8853443861
10.4628222,-5.280959606,-20.62852478,-0.07417750359
10.46757647,-3.211168051,-20.48734665,-0.3110669553
10.47233074,-1.165304661,-20.38445663,-0.06460621208
10.47708502,0.6101697683,-20.26002884,0.4857429862
10.48183929,2.050648928,-20.19781685,1.445264935
10.48659356,2.57228446,-20.01596069,2.11046958
10.49134783,2.919243574,-20.02553177,2.426322222
10.4961021,3.223132133,-20.3054924,2.73260355
10.50085637,3.335594654,-21.00658989,3.285345554
10.50561064,3.292523861,-21.9613266,3.907479286
10.51036491,2.938386202,-22.70549393,4.575077057
10.51511918,1.512263894,-23.17687988,5.364708424
10.51987345,0.08853443712,-23.62912369,6.132804394
10.52462772,-1.03848505,-23.5812664,7.137789726
10.529382,-1.957328916,-23.04527473,8.492127419
10.53413627,-2.478964329,-22.40399933,10.04746246
10.53889054,-1.071984529,-22.78206444,11.79183006
10.54364486,1.39022994,-23.60998154,11.88754272
10.54839913,3.416950703,-24.16750908,10.49252701
10.5531534,4.792823792,-24.2967205,7.298109055
10.55790767,6.022734642,-24.3206501,2.39760828
10.56266194,7.341179848,-24.20340157,-7.278966427
10.56741621,9.341579437,-23.54537392,-26.83311272
10.57217049,12.01914787,-21.70290184,-42.36970901
10.57692476,12.61735344,-18.64966011,-39.18247223
10.58167903,10.96630573,-16.10848236,-24.45704079
10.5864333,10.12164021,-14.22293758,-9.382257462
10.59118757,9.853643417,-12.71545982,-0.002392822644
10.59594184,10.20538902,-11.53101254,3.330809116
10.60069611,9.882357597,-10.01635551,3.960121393
10.60545038,9.061619759,-8.035098076,2.981456995
10.61020465,8.21216774,-6.23330307,1.079162955
10.61495892,7.853243828,-4.802394867,-2.287538528
10.61971319,8.33180809,-4.098905087,-5.857629776
10.62446746,9.102297783,-3.984049797,-6.472585201
10.62922174,9.717252731,-4.163511276,-4.718646049
10.63397601,10.2221384,-4.127619267,-2.012363911
10.63873028,10.26042366,-3.763910055,1.880758643
10.64348455,9.95414257,-3.141776085,4.610969067
10.64823882,9.54257679,-2.23728919,5.247459888
10.65299309,9.485149384,-1.191625714,3.902693748
10.65774736,9.87757206,-0.2057827413,0.5120640397
10.66250163,10.84905815,0.7633104324,-3.680161238
10.6672559,12.17468166,1.734796405,-7.097112179
10.67201017,13.38305664,2.825923443,-8.279166222
10.67676444,13.78505135,3.754338741,-8.319844246
10.68151871,13.48594856,4.345366001,-7.238288403
10.68627298,13.12463188,4.972285271,-5.740381718
10.69102726,13.30170155,5.149354458,-3.909872293
10.69578153,13.80180073,5.249852657,-3.641875982
10.7005358,15.00299835,5.429314613,-4.967499733
10.70529007,15.92901993,5.685346603,-6.826723099
10.71004434,16.00319862,5.781059742,-8.504091263
10.71479861,15.40738487,5.697310925,-8.800801277
10.71955288,12.94038486,5.570491314,-7.554141045
10.72430715,9.028120041,4.419543266,-6.226124287
10.72906142,6.226124287,2.940778971,-5.237888813
10.73381569,4.259224415,1.643869162,-4.441078663
10.73856996,2.94317174,0.7298108935,-3.120240688
10.74332424,2.220539331,0.1339980662,-1.667797327
10.7480785,1.859223247,-0.2991028428,-0.7968099117
10.75283278,1.607976794,-0.5647061467,-0.2201396823
10.75758705,1.483550072,-0.7920243144,0.2201396823
10.76234132,1.490728498,-1.069591761,0.7728816867
10.76709559,1.524227977,-1.586441398,1.378265858
10.77184986,1.820937991,-2.421536446,1.713261008
10.77660413,2.761317253,-3.481556892,1.698904037
10.7813584,3.979264021,-4.852644444,1.761117458
10.78611267,5.367101192,-6.869793892,1.768295884
10.79086694,7.422535896,-10.02592659,1.593619823
10.79562121,10.85145092,-15.20878029,1.050449133
10.80037548,14.72064495,-22.35135651,-0.524028182
10.80512976,18.90569115,-31.67140007,-4.548755646
10.80988403,22.94956207,-42.35774612,-9.166903496
10.8146383,23.9689045,-53.40301514,-9.573683739
10.81939257,20.82952118,-64.0917511,-0.6388836503
10.82414684,14.06022549,-69.09992981,5.235496044
10.82890111,7.334001541,-71.57649994,5.687739372
10.83365538,0.2799602449,-73.2131958,5.819344521
10.83840965,-9.097511292,-73.55058289,7.293323517
10.84316392,-14.56271839,-70.47341156,7.211967468
10.84791819,-15.51506233,-63.72086716,3.299702406
10.85267241,-14.34736443,-53.17808914,0.4594219327
10.85742674,-12.37328625,-42.9439888,-2.337787628
10.86218095,-11.04766178,-34.23171997,-3.062813044
10.86693528,-9.57129097,-27.14896584,-1.840080619
10.8716895,-7.901100159,-21.69333076,-0.3469592929
10.87644377,-6.192625046,-17.19960976,1.012163997
10.88119804,-4.299902439,-13.42373466,1.249053478
10.88595231,-2.682354212,-10.49970531,1.122233868
10.89070658,-1.239482164,-8.252845764,0.409172684
10.89546085,-0.06221338734,-6.608976364,-0.2416750938
10.90021512,0.9451649189,-5.326423168,-0.9236295223
10.90496939,1.533799291,-4.376472473,-1.533799291
10.90972366,1.914258122,-3.672982693,-1.789831281
10.91447793,1.986042738,-2.993421078,-1.509871125
10.9192322,1.727617979,-2.419143677,-0.732203722
10.92398647,1.141376376,-1.969292998,0.09571290761
10.92874074,0.2560320199,-1.581655741,0.8925228715
10.93349502,-0.732203722,-1.387837172,1.758724689
10.93824929,-1.9812572,-1.296909928,2.378465652
10.94300356,-3.050848961,-1.337587833,2.76371026
10.94775783,-3.814159393,-1.440479279,2.991028309
10.9525121,-4.177868366,-1.524227977,3.256631613
10.95726637,-4.350151539,-1.579262972,3.699303865
10.96202064,-4.409972191,-1.483550072,3.8668015
10.96677491,-4.599005222,-1.31126678,3.893122435
10.97152918,-4.733003139,-1.138983607,4.024727821
10.97628345,-4.962714195,-0.8398807645,4.043870449
10.98103772,-5.13021183,-0.4618147612,3.967299938
10.985792,-5.199603558,-0.07417750359,3.876372576
10.99054627,-5.25942421,0.3086741269,3.59641242
10.99530054,-5.010570526,0.6963114142,3.129812002
11.00005476,-4.613361835,0.9236295223,2.553141832
11.00480903,-4.26879549,1.229910851,1.935793519
11.0095633,-4.108476639,1.531406522,1.385444283
11.01431757,-3.976871252,1.85443759,0.8470591903
11.01907184,-4.254438877,2.71824646,-3.201596737
11.02382611,-4.98903513,4.61814785,-13.74915886
11.02858038,-4.29750967,6.307480335,-17.95095634
11.03333465,-3.086741209,6.764509678,-17.34557152
11.03808892,-1.964507341,6.996613503,-16.8167572
11.04284319,-0.70348984,7.305287361,-16.81197166
11.04759746,1.26341033,7.659425259,-16.76411629
11.05235174,3.424129248,7.762316704,-14.6392889
11.05710601,5.795416355,7.523034573,-10.00678444
11.06186028,8.377271652,6.656832695,-4.467400074
11.06661455,11.27737331,4.730610371,0.08374879509
11.07136882,14.04108334,1.974078655,2.967100143
11.07612309,14.29711533,-1.179661512,4.740181446
11.08087736,13.13898945,-3.089133978,5.541777134
11.08563163,11.83729362,-4.173082829,6.549155712
11.0903859,10.164711,-4.613361835,8.118846893
11.09514017,8.008777618,-4.651647091,9.15733242
11.09989439,5.417350292,-4.453042984,9.248259544
11.10464866,3.101098061,-3.976871252,8.69551754
11.10940293,1.416550994,-3.43609333,7.67138958
11.1141572,0.2679961324,-2.969492912,5.886343479
11.11891147,-0.2703889608,-2.811566591,4.252045631
11.12366574,-0.2703889608,-2.842673302,2.679961443
11.12842002,-0.0765703246,-2.87856555,0.8470591903
11.13317429,0.02871387079,-2.97427845,-0.5958128572
11.13792856,0.01674975827,-3.206382275,-0.3038884699
11.14268283,-0.4953143001,-4.984249592,1.873580098
11.1474371,-1.581655741,-13.5409832,2.706282377
11.15219137,-0.8111668825,-25.89273453,-0.4642075896
11.15694564,-1.651047587,-33.19084167,-2.912065268
11.16169991,-2.294716835,-36.14597702,-2.682354212
11.16645418,-3.156133175,-37.90230942,-1.797009826
11.17120845,-5.233103275,-37.88795471,-0.4426721931
11.17596272,-7.714460373,-32.69552994,4.445864677
11.180717,-7.96331358,-25.54577446,7.267002583
11.18547121,-7.094718933,-19.62353897,6.573083878
11.19022549,-5.840879917,-15.09392548,7.200003147
11.19497976,-5.235496044,-12.67238903,6.118447304
11.19973403,-5.836094379,-12.28953743,3.235096216
11.2044883,-6.427121639,-13.40459251,0.7058826685
11.20924257,-6.836294174,-14.65364552,-0.8231309652
11.21399684,-6.374479294,-15.98644829,-1.385444283
11.21875111,-5.225924492,-17.67338753,-1.418943882
11.22350538,-4.345366001,-19.80539322,-1.069591761
11.22825965,-3.613162279,-22.20300102,-0.9236295223
11.23301392,-2.603390932,-24.55514526,-0.6723831892
11.23776819,-1.383051515,-26.6297226,0.3996013701
11.24252246,-0.1962114573,-28.19941521,1.849651933
11.24727674,0.7369893789,-29.28575706,3.306880951
11.25203101,0.8877372146,-29.71885681,4.613361835
11.25678528,0.9092726111,-29.7045002,5.8983078
11.2615395,1.033699393,-29.17568588,6.807580471
11.26629377,0.7680960894,-27.7854557,7.826922894
11.27104804,0.1124626622,-26.26840782,8.255238533
11.27580231,0.6364908218,-25.0241394,9.38465023
11.28055658,2.708675146,-24.72025108,9.734002113
11.28531085,4.465006828,-24.94996262,9.03051281
11.29006512,5.582455158,-25.00260353,7.965706348
11.29481939,7.113861561,-25.03371048,7.00139904
11.29957366,8.114061356,-25.02174568,4.067798615
11.30432793,9.420542717,-25.0743885,-2.079362869
11.3090822,11.2438736,-24.78964233,-13.97169113
11.31383647,13.30409431,-23.45923233,-28.03191757
11.31859069,14.22772312,-20.75773621,-34.06422424
11.32334496,13.48834133,-17.80977821,-27.78067017
11.32809924,11.99522018,-15.55813313,-15.79262924
11.33285351,11.41137123,-13.81137276,-4.91007185
11.33760778,11.69851017,-12.58864021,1.663011789
11.34236205,12.31585789,-11.04048347,5.986842155
11.34711632,11.51665497,-8.628518105,5.125426292
11.35187059,10.18385315,-6.223731518,0.457029134
11.35662486,8.841479301,-4.055834293,-6.999006271
11.36137913,8.77448082,-2.553141832,-13.71805191
11.3661334,9.449256897,-2.187039852,-15.12503147
11.37088767,10.06899738,-2.864208698,-11.29172993
11.37564194,10.23888779,-3.826123476,-6.429514408
11.38039616,10.28195858,-4.139583111,-3.512663603
11.38515043,9.966106415,-3.945764542,-0.433100909
11.3899047,9.731609344,-3.357130051,1.715653777
11.39465897,10.11685371,-2.553141832,2.603390932
11.39941324,10.97348499,-1.737189293,2.227717876
11.40416752,11.77508068,-0.9188438654,1.162911773
11.40892179,12.51446247,-0.1746760458,0.05742774159
11.41367606,13.69651699,0.6436693072,-1.107876897
11.41843033,14.57707596,1.775474429,-3.074777126
11.4231846,14.6321106,2.883351326,-5.678168297
11.42793882,14.249259,3.862015724,-7.558926582
11.43269309,13.3902359,4.52482748,-7.362715244
11.43744736,12.59342575,4.878965378,-5.618347645
11.44220163,11.87557888,4.957928658,-4.264009953
11.4469559,11.40897846,5.00339222,-4.000799656
11.45171017,11.10748291,5.063212872,-4.450650215
11.45646444,10.68873882,5.120640278,-5.187639713
11.46121871,9.803394318,5.290530682,-5.33599472
11.46597298,7.6426754,5.020142078,-4.816751957
11.47072726,5.204389095,4.000799656,-3.888336897
11.47548153,3.390629768,2.734996319,-2.751745939
11.48023574,2.160718918,1.751546144,-1.80658114
11.48499002,1.354337573,1.115055323,-1.426122308
11.48974429,0.7968099117,0.6867401004,-1.138983607
11.49449856,0.433100909,0.337387979,-1.004985452
11.49925283,0.35174492,0.01914258115,-0.8063812256
11.5040071,0.5527420044,-0.3206382394,-0.5934200287
11.50876137,0.8279166222,-0.784845829,-0.3589234054
11.51351564,1.158126116,-1.64626193,-0.1890329868
11.51826991,1.828116536,-2.663211584,-0.1555334777
11.52302413,2.842673302,-3.6299119,0.1244267747
11.5277784,3.991228104,-5.032105923,0.5431707501
11.53253267,5.314459324,-7.106683254,0.3014956415
11.53728694,7.240681171,-10.51884842,-0.5168496966
11.54204121,10.55713367,-16.09412575,-1.768295884
11.54679548,14.31147194,-22.96870422,-3.462414265
11.55154976,18.07298851,-31.05405235,-5.953342915
11.55630403,20.55673981,-40.00081635,-8.008777618
11.5610583,20.49213219,-49.59364319,-8.173882484
11.56581257,18.39362717,-59.6482811,0.2775674164
11.57056684,12.90209961,-65.33602142,6.955935478
11.57532106,5.539384365,-68.20023346,9.343972206
11.58007533,-2.663211584,-69.33442688,10.63848972
11.5848296,-9.920642853,-68.97789764,12.37567902
11.58958387,-12.72024536,-67.0779953,10.09292603
11.59433814,-15.0652113,-62.09135437,6.099305153
11.59909241,-14.9527483,-53.31208801,2.371287346
11.60384668,-12.2416811,-43.42015839,0.01674975827
11.60860095,-9.171689034,-34.987854,-2.962314367
11.61335517,-6.159125328,-27.97448921,-4.476971149
11.61810944,-2.742174864,-22.41596222,-4.354937077
11.62286371,0.3972085714,-18.19741631,-3.785445452
11.62761798,2.861815929,-14.93360615,-3.495913982
11.63237226,4.761716843,-12.54317665,-3.826123476
11.63712653,5.907878876,-10.64327526,-4.151547432
11.6418808,6.486942291,-9.090332985,-4.015156269
11.64663507,6.60419035,-7.812565804,-3.548556089
11.65138929,6.063412666,-6.649653912,-2.847458839
11.65614356,5.058426857,-5.675775528,-1.921436548
11.66089783,3.646661758,-4.876572609,-0.9451649189
11.6656521,2.036292076,-4.173082829,0.06939185411
11.67040637,0.1674975902,-3.766302824,1.205982566
11.67516064,-1.732403636,-3.625126362,2.258824587
11.67991491,-3.24466753,-3.503092289,3.433700562
11.68466918,-4.29750967,-3.297309637,4.438685894
11.6894234,-5.173282623,-3.046063185,4.66839695
11.69417767,-5.481956482,-2.809173822,4.742574692
11.69893194,-5.730810165,-2.512463808,4.749752998
11.70368621,-5.714060307,-2.117648125,5.022534847
11.70844048,-5.654240131,-1.543370605,5.213960648
11.71319476,-5.647061348,-1.057627559,5.302495003
11.71794903,-5.551348686,-0.6412764788,5.132604599
11.7227033,-5.606383324,-0.2464607358,4.80957365
11.72745752,-5.40060091,0.2775674164,4.733003139
11.73221179,-5.075176716,0.7226324677,4.625326157
11.73696606,-4.723432064,1.210768223,4.237689018
11.74172033,-4.388436794,1.725225091,3.598805189
11.7464746,-4.230510235,2.120040894,3.024527788
11.75122887,-4.029513359,2.507678032,2.672782898
11.75598309,-3.902693748,2.857030153,2.560320139
11.76073736,-3.651447296,3.239881754,2.593819857
11.76549163,-3.438486099,3.775874138,1.557727575
11.7702459,-3.859622955,5.812166214,-12.50967693
11.77500017,-3.220739365,8.114061356,-21.52583313
11.77975444,-1.332802176,8.812766075,-22.68874359
11.78450871,0.7752745152,9.12861824,-22.04746819
11.78926298,2.395215511,9.494720459,-21.3344059
11.7940172,4.242474556,10.17667484,-18.53241158
11.79877147,5.895915031,10.04746246,-13.25145149
11.80352574,7.965706348,9.547362328,-6.798008919
11.80828002,9.860821724,8.216953278,-0.4211367965
11.81303429,11.31087303,5.639883041,5.11585474
11.81778856,11.24626637,2.196611166,9.312865257
11.82254283,9.803394318,-0.05024927482,11.35155106
11.82729705,8.039883614,-1.234696507,12.1794672
11.83205132,6.273981094,-1.816152334,12.39482117
11.83680559,4.543970108,-2.000399828,11.72483063
11.84155986,2.935993433,-1.883151412,10.13360405
11.84631413,1.832902193,-1.430907965,8.425128937
11.8510684,0.8279166222,-1.19880414,6.79561615
11.85582262,0.1004985496,-0.9714859724,5.201996326
11.86057689,-0.3708875179,-0.7585247755,3.749552965
11.86533116,-0.6532405615,-0.6867401004,2.524427891
11.87008543,-0.6604190469,-0.7776673436,1.261017561
11.8748397,-0.2321037948,-1.282552958,-0.6388836503
11.87959397,0.2727817893,-2.249253273,-5.814558983
11.88434824,0.7010970116,-2.273181438,-3.598805189
11.88910246,0.7178468108,-2.785245657,-4.587040901
11.89385674,0.457029134,-3.50069952,-5.393422127
11.89861101,-0.2919243574,-4.019941807,-4.55354166
11.90336528,-2.495713949,-6.786045074,-2.809173822
