"Time (s)","Acceleration x (m/s^2)","Acceleration y (m/s^2)","Acceleration z (m/s^2)"
4.022718940E-1,-3.272873640E0,4.496310711E0,4.199429989E0
4.072708940E-1,-2.760514498E0,2.293645144E0,3.378218651E0
4.122708940E-1,-2.205059767E0,3.040636182E-1,2.978386879E0
4.172708940E-1,-1.661576033E0,-1.620874524E0,2.964021683E0
4.222708940E-1,-1.237802267E0,-3.315969467E0,3.148375273E0
4.272708940E-1,-9.217676520E-1,-4.814739704E0,3.517082214E0
4.322668940E-1,-6.967126727E-1,-6.009745598E0,4.091690540E0
4.372670600E-1,-6.296750307E-1,-6.811803341E0,4.896441936E0
4.422672020E-1,-7.278373241E-1,-7.266701221E0,5.784690380E0
4.472673270E-1,-1.005564690E0,-7.472602844E0,6.725611687E0
4.522673270E-1,-1.340752959E0,-7.549217224E0,7.630620003E0
4.572673270E-1,-1.843535304E0,-7.362469673E0,8.545205116E0
4.622673270E-1,-2.336740971E0,-7.139808655E0,9.256282806E0
4.672673270E-1,-2.779668093E0,-6.998550892E0,9.656114578E0
4.722673270E-1,-3.201047659E0,-6.905177116E0,9.766247749E0
4.772673270E-1,-3.605667830E0,-6.747159481E0,9.617807388E0
4.822673270E-1,-3.995922565E0,-6.450278759E0,9.325715065E0
4.872673890E-1,-4.386177540E0,-6.045658588E0,8.889969826E0
4.922674470E-1,-4.807557106E0,-5.533299446E0,8.576330185E0
4.972675020E-1,-5.248389244E0,-5.054459095E0,8.138191223E0
5.022675020E-1,-5.772719383E0,-4.642356873E0,7.546823025E0
5.072675020E-1,-6.335357189E0,-4.309563160E0,7.261912823E0
5.122673590E-1,-6.883629322E0,-4.050989151E0,7.144597054E0
5.172674040E-1,-7.599495411E0,-3.907337189E0,7.197269440E0
5.222674470E-1,-8.595483780E0,-3.809175014E0,7.235576630E0
5.272674880E-1,-9.512462616E0,-3.610456228E0,7.142202854E0
5.322674880E-1,-1.016129112E1,-3.438073635E0,6.988974094E0
5.372674880E-1,-1.086039829E1,-3.253720045E0,6.950666904E0
5.422674880E-1,-1.164330196E1,-2.975992680E0,6.974608898E0
5.472675230E-1,-1.243817711E1,-2.693476915E0,7.020098686E0
5.522675570E-1,-1.308940029E1,-2.473210335E0,7.075165272E0
5.572675900E-1,-1.368316174E1,-2.322375536E0,7.228394032E0
5.622675900E-1,-1.424101067E1,-2.238578558E0,7.436689854E0
5.672675900E-1,-1.475127506E1,-2.214636564E0,7.714416981E0
5.722675900E-1,-1.516786671E1,-2.140416384E0,7.932289600E0
5.772675900E-1,-1.548390102E1,-1.980004787E0,8.025663376E0
5.822682560E-1,-1.568022537E1,-1.740584612E0,7.999327183E0
5.872682220E-1,-1.572092724E1,-1.412579060E0,7.896376610E0
5.922682220E-1,-1.566586018E1,-1.089361787E0,7.793426037E0
5.972682220E-1,-1.550305462E1,-7.589619160E-1,7.704840183E0
6.022682550E-1,-1.532588387E1,-4.692635238E-1,7.654561996E0
6.072682880E-1,-1.509843445E1,-2.154781520E-1,7.654561996E0
6.122682880E-1,-1.483986092E1,-3.591302410E-2,7.683292389E0
6.172682880E-1,-1.454507446E1,3.112462163E-2,7.714416981E0
6.222682880E-1,-1.422664547E1,3.591302410E-2,7.697657585E0
6.272682880E-1,-1.393215942E1,2.633621916E-2,7.621043205E0
6.322682880E-1,-1.370231533E1,4.548983276E-2,7.479785442E0
6.372682540E-1,-1.354429817E1,1.101332754E-1,7.266701221E0
6.422682540E-1,-1.344853020E1,1.915361285E-1,7.032069683E0
6.472682540E-1,-1.348444366E1,2.801215947E-1,6.737582684E0
6.522682870E-1,-1.362570095E1,3.639186621E-1,6.481403351E0
6.572682870E-1,-1.397286034E1,4.620809257E-1,6.320991993E0
6.622683870E-1,-1.446127796E1,5.650315881E-1,6.280290127E0
6.672683530E-1,-1.507688618E1,6.967126727E-1,6.347328186E0
6.722683530E-1,-1.579993534E1,8.595184088E-1,6.502951145E0
6.772683530E-1,-1.662354088E1,1.072602391E0,6.747159481E0
6.822683860E-1,-1.749024200E1,1.350329757E0,7.058405876E0
6.872683860E-1,-1.831863594E1,1.709460020E0,7.429507256E0
6.922683860E-1,-1.898661804E1,2.061407566E0,7.805397034E0
6.972683520E-1,-1.942236328E1,2.398990154E0,8.233959198E0
7.022683180E-1,-1.968093681E1,2.681505919E0,8.621819496E0
7.072682840E-1,-1.969769669E1,2.885013103E0,8.976161003E0
7.122682840E-1,-1.955164909E1,2.975992680E0,9.270648003E0
7.172683170E-1,-1.927871132E1,2.928108692E0,9.517251015E0
7.222683500E-1,-1.891000366E1,2.777273893E0,9.725546837E0
7.272683830E-1,-1.842637444E1,2.568978310E0,9.862015724E0
7.322684160E-1,-1.775599861E1,2.214636564E0,1.024748230E1
7.372684160E-1,-1.632666016E1,1.264138460E0,1.208144093E1
7.422683820E-1,-1.477282333E1,2.513911724E-1,1.437029743E1
7.472683480E-1,-1.333121395E1,-2.537853718E-1,1.568740845E1
7.522683480E-1,-1.237592793E1,-2.226607651E-1,1.566346645E1
7.572683480E-1,-1.184680939E1,3.734954596E-1,1.365682602E1
7.622683810E-1,-1.137036324E1,8.164227605E-1,1.110939503E1
7.672683810E-1,-1.084842682E1,7.996633649E-1,8.949825287E0
7.722683810E-1,-1.036240387E1,3.543418646E-1,7.769483566E0
7.772683810E-1,-9.991303444E0,-4.022258818E-1,7.429507256E0
7.822683810E-1,-9.727940559E0,-1.031900883E0,7.082347870E0
7.872683810E-1,-9.572318077E0,-1.307234168E0,6.366481781E0
7.922683470E-1,-9.304166794E0,-1.520318031E0,5.406406879E0
7.972683470E-1,-9.059958458E0,-1.496376038E0,4.273650169E0
8.022683470E-1,-8.937853813E0,-1.460463047E0,3.229778051E0
8.072683800E-1,-9.069535255E0,-1.493981838E0,1.948880196E0
8.122683800E-1,-9.364022255E0,-1.331176162E0,1.012747288E0
8.172683800E-1,-9.462183952E0,-1.520318031E0,6.871358752E-1
8.222683460E-1,-9.723152161E0,-1.290474772E0,-2.657563984E-1
8.272683120E-1,-9.244312286E0,-2.114080191E0,-8.403648138E-1
8.322681780E-1,-9.251494408E0,-2.300827742E0,-1.084573388E0
8.372681780E-1,-9.170091629E0,-2.279279947E0,-1.747767210E0
8.422681780E-1,-8.760683060E0,-2.583343744E0,-2.308010340E0
8.472682110E-1,-8.272266388E0,-3.306392431E0,-2.822763920E0
8.522682440E-1,-7.891588211E0,-4.019864559E0,-3.239354849E0
8.572682770E-1,-7.649773598E0,-4.522646904E0,-3.572149038E0
8.622678430E-1,-7.510910034E0,-4.812345505E0,-3.950432777E0
8.672678090E-1,-7.367258072E0,-4.963479519E0,-4.405331135E0
8.722677750E-1,-7.178115845E0,-5.035305500E0,-4.879383087E0
8.772677750E-1,-6.974608898E0,-5.035305500E0,-5.238812447E0
8.822677750E-1,-6.737582684E0,-5.006575108E0,-5.356128693E0
8.872678080E-1,-6.512527943E0,-4.917989731E0,-5.116708279E0
8.922678080E-1,-6.294655323E0,-4.857835293E0,-4.606443882E0
8.972678080E-1,-6.148609161E0,-4.690241337E0,-3.562572241E0
9.022677740E-1,-6.100725174E0,-4.378994942E0,-2.509123325E0
9.072677400E-1,-6.024110794E0,-3.964797974E0,-1.651999116E0
9.122677060E-1,-5.772719383E0,-3.512293816E0,-1.039083481E0
9.172677060E-1,-5.396830082E0,-3.071760893E0,-6.296750307E-1
9.222677390E-1,-4.860229492E0,-2.736572504E0,-1.484405100E-1
9.272677720E-1,-4.185064793E0,-2.396595955E0,3.399766386E-1
9.322678050E-1,-3.471592426E0,-2.111685991E0,7.541735172E-1
9.372678050E-1,-2.827552319E0,-2.073378563E0,1.194706678E0
9.422678050E-1,-2.449268341E0,-2.288856745E0,1.673547029E0
9.472677710E-1,-2.509123325E0,-2.858676910E0,2.169146776E0
9.522677710E-1,-2.779668093E0,-3.653551817E0,2.492363930E0
9.572677710E-1,-3.232172251E0,-4.608838081E0,2.557007313E0
9.622678040E-1,-3.758896589E0,-5.657797813E0,2.387019157E0
9.672678040E-1,-4.402936935E0,-6.617872715E0,2.063801765E0
9.722678040E-1,-4.953902721E0,-7.441478252E0,1.675941229E0
9.772678040E-1,-5.370493889E0,-8.229170799E0,1.252167463E0
9.822679040E-1,-5.700893402E0,-8.897152901E0,8.643068075E-1
9.872679040E-1,-6.000168800E0,-9.354445457E0,5.865794420E-1
9.922679040E-1,-6.287472725E0,-9.589076996E0,4.070142806E-1
9.972678700E-1,-6.648997307E0,-9.534010887E0,3.663128614E-1
1.002267870E0,-7.046434879E0,-9.359233856E0,4.453215301E-1
1.007267870E0,-7.419930458E0,-9.126996040E0,6.177040339E-1
1.012268336E0,-7.747935772E0,-8.846874237E0,8.427590132E-1
1.017268336E0,-8.116642952E0,-8.559570312E0,1.017535686E0
1.022268336E0,-8.497321129E0,-8.257901192E0,1.120486379E0
1.027268302E0,-8.868422508E0,-7.989750385E0,1.151610970E0
1.032268302E0,-9.155726433E0,-7.822156429E0,1.122880578E0
1.037267635E0,-9.364022255E0,-7.759906769E0,9.600749016E-1
1.042267368E0,-9.589076996E0,-7.750329971E0,6.607996821E-1
1.047267368E0,-9.730335236E0,-7.977779388E0,3.351882398E-1
1.052267134E0,-9.703998566E0,-8.341697693E0,4.309562966E-2
1.057267134E0,-9.074323654E0,-8.178892136E0,-1.675941199E-1
1.062266234E0,-8.370428085E0,-7.982567787E0,-3.998316824E-1
1.067266234E0,-7.678503990E0,-7.838915825E0,-6.727706790E-1
1.072266200E0,-7.075165272E0,-7.735964775E0,-9.265560508E-1
1.077266200E0,-6.560411930E0,-7.644985199E0,-1.156399369E0
1.082266200E0,-6.139032364E0,-7.554005623E0,-1.328781962E0
1.087266233E0,-5.784690380E0,-7.429507256E0,-1.403002143E0
1.092266233E0,-5.404012680E0,-7.259518623E0,-1.352723956E0
1.097266233E0,-4.927566528E0,-7.015310287E0,-1.204283476E0
1.102266199E0,-4.355052948E0,-6.665756702E0,-1.046266198E0
1.107266165E0,-3.763684988E0,-6.244377136E0,-9.121908545E-1
1.112266131E0,-3.210624456E0,-5.782296181E0,-7.924807668E-1
1.117266131E0,-2.686294317E0,-5.272331238E0,-6.775590777E-1
1.122266131E0,-2.231395960E0,-4.793191910E0,-5.722141862E-1
1.127266164E0,-1.821987510E0,-4.338293552E0,-4.596867263E-1
1.132266197E0,-1.484405041E0,-3.962403774E0,-3.567360640E-1
1.137266230E0,-1.201889277E0,-3.672705412E0,-2.537853718E-1
1.142266230E0,-9.696516991E-1,-3.442862034E0,-1.532289088E-1
1.147266230E0,-8.020575643E-1,-3.272873640E0,-5.027823523E-2
1.152266196E0,-6.823474765E-1,-3.174711466E0,6.943184882E-2
1.157266196E0,-5.746083856E-1,-3.138798475E0,2.250549644E-1
1.162266196E0,-4.453215301E-1,-3.201047659E0,3.926490843E-1
1.167266229E0,-2.250549644E-1,-3.378218651E0,5.458779931E-1
1.172266229E0,-3.591302410E-2,-3.538630009E0,6.512228847E-1
1.177266229E0,8.619125932E-2,-3.617638826E0,6.823474765E-1
1.182266195E0,1.484405100E-1,-3.653551817E0,6.943184733E-1
1.187266828E0,1.580173075E-1,-3.651157618E0,6.895300746E-1
1.192267094E0,1.795651317E-1,-3.696647406E0,6.607996821E-1
1.197267094E0,2.274491638E-1,-3.801992416E0,6.248866320E-1
1.202267360E0,2.609679997E-1,-3.969586372E0,6.057330370E-1
1.207267393E0,3.232172430E-1,-4.230554581E0,5.554547906E-1
1.212268326E0,4.094084799E-1,-4.520252705E0,4.836287498E-1
1.217268326E0,4.836287498E-1,-4.965873718E0,3.663128614E-1
1.222268326E0,4.884171486E-1,-5.538087845E0,1.963245422E-1
1.227268292E0,4.333505034E-1,-6.725611687E0,1.508347094E-1
1.232268258E0,5.291185975E-1,-8.277054787E0,1.101332754E-1
1.237268258E0,9.481038451E-1,-1.060421848E1,3.112462163E-2
1.242268291E0,1.728613615E0,-1.362809563E1,-3.447650373E-1
1.247268324E0,2.822763920E0,-1.697548866E1,-9.002198577E-1
1.252268857E0,4.522646904E0,-2.037285995E1,-1.675941229E0
1.257268857E0,7.087136269E0,-2.377741623E1,-2.530671120E0
1.262268857E0,9.835680008E0,-2.682792854E1,-3.306392431E0
1.267268857E0,1.309418869E1,-2.949746323E1,-3.962403774E0
1.272268857E0,1.595555878E1,-3.147746849E1,-4.446032524E0
1.277268823E0,1.766741371E1,-3.215981674E1,-4.568136692E0
1.282268823E0,1.801696587E1,-3.164266777E1,-4.338293552E0
1.287268823E0,1.741602135E1,-3.025881958E1,-3.866635799E0
1.292268856E0,1.624046898E1,-2.831951523E1,-3.282450438E0
1.297268856E0,1.475127506E1,-2.604502296E1,-2.707842112E0
1.302268856E0,1.306066990E1,-2.343265152E1,-2.262520552E0
1.307268822E0,1.104714584E1,-2.057876205E1,-1.489193439E0
1.312268822E0,9.182063103E0,-1.806006241E1,-6.943184733E-1
1.317268822E0,7.549217224E0,-1.582148361E1,-7.182605099E-3
1.322268855E0,6.191704750E0,-1.390821648E1,4.979939461E-1
1.327268855E0,4.932354927E0,-1.213171959E1,1.041477680E0
1.332268855E0,3.787626982E0,-1.049887371E1,1.771709204E0
1.337268855E0,2.738966703E0,-8.995314598E0,2.679111719E0
1.342268855E0,1.711854219E0,-7.585130215E0,4.039018154E0
1.347268855E0,5.219359994E-1,-6.285078526E0,6.060023785E0
1.352268821E0,-4.836287498E-1,-5.176563263E0,7.676109791E0
1.357268787E0,-1.074996591E0,-4.374206543E0,8.126219749E0
1.362268787E0,-1.292868972E0,-3.861847401E0,7.882011414E0
1.367268820E0,-1.180341482E0,-3.632004023E0,6.708852291E0
1.372268853E0,-1.010353088E0,-3.538630009E0,5.327397823E0
1.377268853E0,-7.661445141E-1,-3.579331636E0,3.828328609E0
1.382268853E0,-5.195417404E-1,-3.715801001E0,2.485181332E0
1.387268819E0,-2.896983922E-1,-3.921702385E0,1.312022567E0
1.392268785E0,-3.830722719E-2,-4.192247391E0,3.112462163E-1
1.400052730E0,2.346317619E-1,-4.565742493E0,-5.147533417E-1
1.405052196E0,4.955997467E-1,-4.965873718E0,-1.173158884E0
1.410052229E0,7.613561153E-1,-5.485415459E0,-1.685518026E0
1.415052262E0,1.022324085E0,-6.031293392E0,-2.078166962E0
1.420052295E0,1.312022567E0,-6.699275494E0,-2.363077164E0
1.425052295E0,1.608903527E0,-7.360075474E0,-2.559401512E0
1.430052295E0,1.912967205E0,-8.121431351E0,-2.667140722E0
1.435052128E0,2.217030764E0,-8.911518097E0,-2.695871115E0
1.440052128E0,2.518700123E0,-9.732728958E0,-2.703053713E0
1.445052128E0,2.798821688E0,-1.063055515E1,-2.784456491E0
1.450052161E0,3.002328873E0,-1.148767948E1,-2.856282711E0
1.455052161E0,3.083731890E0,-1.214129639E1,-2.861071110E0
1.460052161E0,2.904166698E0,-1.243817711E1,-2.686294317E0
1.465052127E0,2.624045134E0,-1.251479149E1,-2.425326347E0
1.470052093E0,2.298433542E0,-1.244536018E1,-2.085349798E0
1.475052059E0,1.994369984E0,-1.235437965E1,-1.750161409E0
1.480052525E0,1.735796213E0,-1.224903488E1,-1.436521053E0
1.485052125E0,1.532289028E0,-1.212693119E1,-1.158793569E0
1.490052158E0,1.326387763E0,-1.197130775E1,-9.145850539E-1
1.495052191E0,1.130063176E0,-1.177737713E1,-7.110779285E-1
1.500051824E0,9.241618514E-1,-1.149486160E1,-5.051765442E-1
1.505051824E0,7.398083210E-1,-1.117403889E1,-3.112462163E-1
1.510051824E0,5.722141862E-1,-1.076941872E1,-5.746084079E-2
1.515051790E0,4.237737060E-1,-1.036240387E1,2.873041928E-1
1.520051790E0,3.040636182E-1,-9.952995300E0,9.002198577E-1
1.525051790E0,2.489969730E-1,-9.615413666E0,1.623268723E0
1.530051823E0,3.016694188E-1,-9.390357971E0,2.257732153E0
1.535051823E0,4.620809257E-1,-9.268254280E0,2.667140722E0
1.540051823E0,7.062895298E-1,-9.239523888E0,2.810792685E0
1.545051823E0,1.005564690E0,-9.275436401E0,2.710236311E0
1.550051823E0,1.347935557E0,-9.375992775E0,2.398990154E0
1.555051823E0,1.680729628E0,-9.490914345E0,2.044648170E0
1.560051789E0,2.015917778E0,-9.624990463E0,1.628057122E0
1.565051789E0,2.310404539E0,-9.747094154E0,1.244984865E0
1.570051789E0,2.571372509E0,-9.835680008E0,8.810662031E-1
1.575051822E0,2.760514498E0,-9.862015724E0,5.602431893E-1
1.580051822E0,2.865859509E0,-9.814131737E0,2.849099934E-1
1.585051955E0,2.908955097E0,-9.711181641E0,7.422025502E-2
1.590051921E0,2.894589901E0,-9.572318077E0,-6.464344263E-2
1.595051921E0,2.861071110E0,-9.421483040E0,-1.460463107E-1
1.600051921E0,2.822763920E0,-9.285013199E0,-1.580173075E-1
1.605051954E0,2.786850691E0,-9.177274704E0,-1.244984865E-1
1.610051987E0,2.789244890E0,-9.107842445E0,-2.394201607E-2
1.615051987E0,2.813186884E0,-9.079112053E0,9.337386489E-2
1.620051987E0,2.873042107E0,-9.086295128E0,2.442085743E-1
1.625051987E0,2.937685490E0,-9.122207642E0,3.711012602E-1
1.630051520E0,2.999934673E0,-9.167697906E0,4.477157295E-1
1.635051920E0,3.045424461E0,-9.220370293E0,4.644751251E-1
1.640051886E0,3.088520288E0,-9.282619476E0,4.141969085E-1
1.645051886E0,3.119644880E0,-9.330503464E0,3.351882398E-1
1.650052286E0,3.138798475E0,-9.366415977E0,2.178723514E-1
1.655052319E0,3.148375273E0,-9.397541046E0,9.337386489E-2
1.660052319E0,3.148375273E0,-9.414299965E0,-4.788403213E-2
1.665052319E0,3.148375273E0,-9.414299965E0,-1.843535304E-1
1.670052285E0,3.143586874E0,-9.402329445E0,-3.112462163E-1
1.675052285E0,3.145981073E0,-9.387964249E0,-4.309563041E-1
1.680052285E0,3.165134668E0,-9.375992775E0,-5.315127969E-1
1.685052318E0,3.193865061E0,-9.361627579E0,-6.033388376E-1
1.690052318E0,3.217807055E0,-9.316138268E0,-6.248866320E-1
1.695052318E0,3.239354849E0,-9.253889084E0,-6.105214357E-1
1.700052318E0,3.260902643E0,-9.167697906E0,-5.458779931E-1
1.705052318E0,3.284844637E0,-9.081506729E0,-4.644751251E-1
1.710052318E0,3.311181068E0,-9.000102997E0,-3.615244627E-1
1.715052284E0,3.363853455E0,-8.945036888E0,-2.753331959E-1
1.720052284E0,3.452438831E0,-8.940248489E0,-2.154781520E-1
1.725052284E0,3.581725836E0,-8.983344078E0,-1.843535304E-1
1.730052317E0,3.730166197E0,-9.059958458E0,-1.723825186E-1
1.735052350E0,3.876212597E0,-9.155726433E0,-1.771709323E-1
1.740052350E0,4.007893562E0,-9.258677483E0,-1.843535304E-1
1.745052316E0,4.115632534E0,-9.352050781E0,-1.939303428E-1
1.750052282E0,4.204218388E0,-9.443030357E0,-2.059013397E-1
1.755052248E0,4.271255970E0,-9.519645691E0,-2.250549644E-1
1.760052214E0,4.156333923E0,-9.438241959E0,-1.675941199E-1
1.765052214E0,4.029441357E0,-9.368810654E0,-1.340752989E-1
1.770052247E0,4.007893562E0,-9.392752647E0,-1.723825186E-1
1.775052280E0,3.964797974E0,-9.380781174E0,-1.867477298E-1
1.780052313E0,3.881000996E0,-9.330503464E0,-1.843535304E-1
1.785052313E0,3.761290789E0,-9.241917610E0,-1.651999205E-1
1.790052313E0,3.600879431E0,-9.107842445E0,-1.197100878E-1
1.795052279E0,3.435679436E0,-8.961795807E0,-6.943184882E-2
1.800052279E0,3.260902643E0,-8.789413452E0,-1.436521020E-2
1.805052279E0,3.093308687E0,-8.621819496E0,3.830722719E-2
1.810052312E0,2.944868088E0,-8.468590736E0,7.422025502E-2
1.815052312E0,2.846705914E0,-8.365639687E0,8.379705995E-2
1.820052312E0,2.801215887E0,-8.322544098E0,7.422025502E-2
1.825052278E0,2.817975283E0,-8.348880768E0,4.070143029E-2
1.830052244E0,2.839523315E0,-8.408735275E0,7.182605099E-3
1.835051844E0,2.913743496E0,-8.530839920E0,-4.309562966E-2
1.840051844E0,3.028665066E0,-8.693645477E0,-1.029506698E-1
1.845051877E0,3.129221678E0,-8.844480515E0,-1.436520964E-1
1.850051910E0,3.172317266E0,-8.952219009E0,-1.340752989E-1
1.855051943E0,3.136404276E0,-9.012074471E0,-7.422025502E-2
1.860051976E0,3.021482468E0,-9.009679794E0,2.633621916E-2
1.865051976E0,2.880224705E0,-9.004891396E0,1.532289088E-1
1.870051942E0,2.722207308E0,-9.009679794E0,2.896983922E-1
1.875051908E0,2.590526342E0,-9.059958458E0,4.070142806E-1
1.880051908E0,2.480392933E0,-9.110237122E0,5.147533417E-1
1.885051908E0,2.420537949E0,-9.165303230E0,5.865794420E-1
1.890051941E0,2.492363930E0,-9.299378395E0,6.200982332E-1
1.895051941E0,2.647987127E0,-9.466972351E0,6.320692301E-1
1.900051941E0,2.932897091E0,-9.694421768E0,6.200982332E-1
1.905051941E0,3.251325846E0,-9.902717590E0,6.153098345E-1
1.910051941E0,3.560178041E0,-1.007509995E1,6.200982332E-1
1.915051941E0,3.876212597E0,-1.023790550E1,6.177040339E-1
1.920051907E0,4.158728123E0,-1.036479855E1,6.224924326E-1
1.925051907E0,4.371812344E0,-1.042704773E1,6.296750307E-1
1.930051907E0,4.460397720E0,-1.038874054E1,6.536170840E-1
1.935051940E0,4.465186119E0,-1.028578949E1,6.871358752E-1
1.940051940E0,4.367023945E0,-1.009185982E1,6.991068721E-1
1.945051940E0,4.230554581E0,-9.871592522E0,6.967126727E-1
1.950051906E0,4.012681961E0,-9.569923401E0,6.727706790E-1
1.955051906E0,3.766079187E0,-9.232340813E0,6.177040339E-1
1.960051906E0,3.473986626E0,-8.801384926E0,5.506663918E-1
1.965051939E0,3.138798475E0,-8.298602104E0,4.644751251E-1
1.970051939E0,2.782062292E0,-7.776666164E0,3.591302633E-1
1.975051939E0,2.461239338E0,-7.281066418E0,2.394201756E-1
1.980051939E0,2.205059767E0,-6.857293129E0,1.029506698E-1
1.985052305E0,2.018311977E0,-6.519710541E0,-1.915361360E-2
1.990052305E0,1.939303398E0,-6.354510784E0,-1.532289088E-1
1.995052271E0,1.951274395E0,-6.328174591E0,-2.777273953E-1
2.000052237E0,2.102109194E0,-6.586748123E0,-3.711012602E-1
2.005052237E0,2.286462545E0,-7.010521889E0,-4.237737060E-1
2.010052237E0,2.468421936E0,-7.508515835E0,-4.381389022E-1
2.015052270E0,2.604891539E0,-8.028057098E0,-3.926490843E-1
2.020052270E0,2.643198729E0,-8.485349655E0,-2.992752194E-1
2.025052270E0,2.676717520E0,-8.873210907E0,-2.298433632E-1
2.030052236E0,2.782062292E0,-9.222764015E0,-2.298433632E-1
2.035052669E0,2.911349297E0,-9.500492096E0,-2.705447972E-1
2.040051969E0,3.090914488E0,-9.727940559E0,-3.447650373E-1
2.045051969E0,3.301604033E0,-9.921871185E0,-4.285621047E-1
2.050052002E0,3.524264812E0,-1.007988834E1,-5.051765442E-1
2.055052035E0,3.725377798E0,-1.019002151E1,-5.793967843E-1
2.060052068E0,3.837905407E0,-1.023072338E1,-6.272808313E-1
2.065052068E0,3.857059002E0,-1.019241619E1,-6.416460276E-1
2.070052068E0,3.756502390E0,-1.004158115E1,-6.224924326E-1
2.075052034E0,3.610456228E0,-9.854833603E0,-5.865794420E-1
2.080052034E0,3.402160645E0,-9.624990463E0,-5.315127969E-1
2.085052034E0,3.198653460E0,-9.416694641E0,-4.740519226E-1
2.090052067E0,2.980781078E0,-9.229947090E0,-4.237737060E-1
