Time (s),X (m/s^2),Y (m/s^2),Z (m/s^2)
9.005136292,-0.40715353455959813,-0.6734041974004337,-0.27826877856544424
9.015064292,-0.3646791516954884,-0.7069754891411856,-0.2803130631671837
9.024993292,-0.32478096935419487,-0.7411894705701387,-0.2831285821327168
9.034922292,-0.28857396992090756,-0.7755254172645859,-0.28666269438625336
9.044851292,-0.25705379378260224,-0.8094578055979357,-0.29086101422470695
9.054780292,-0.23106797636071724,-0.8424702880366078,-0.29567130438946626
9.064709292,-0.2112912343905722,-0.8740685346238586,-0.30104619280159156
9.074638292,-0.198205639429396,-0.9037914905868063,-0.3069445064663022
9.084567292,-0.19208638208483106,-0.9312207029720305,-0.3133311585961829
9.094495292,-0.19299365007113506,-0.9559874885373594,-0.3201756711429402
9.104424292,-0.20077092251036063,-0.9777778396463348,-0.3274495425048325
9.114353292,-0.21504973599222948,-0.9963350848213788,-0.33512276130057495
9.124282292,-0.23526072479446108,-1.0114604283097712,-0.343159814250443
9.134211292,-0.260650499929614,-1.0230115830425748,-0.3515155424139564
9.144140292,-0.29030372741628807,-1.0308997802993571,-0.3601311748032709
9.154069292,-0.32316960615259377,-1.0350854857368694,-0.36893082299085067
9.163998292,-0.35809183273750705,-1.0355731754913144,-0.37781866464346614
9.173926292,-0.39384107162061455,-1.0324055297027046,-0.38667698547834256
9.183855292,-0.4291489188825103,-1.0256573870292234,-0.3953651934274087
9.193784292,-0.46274235138884384,-1.0154297757283688,-0.40371986894149064
9.203710667,-0.49337768491854217,-1.0018442972104358,-0.4115558712314758
9.213639667,-0.519873120394258,-0.9850380883937332,-0.41866847904437265
9.223568667,-0.5411390324335948,-0.9651595314825666,-0.42483650381136073
9.233497667,-0.5562052457777736,-0.9423648162588495,-0.4298262731517322
9.243426667,-0.5642446501585066,-0.9168153932891653,-0.4333963469498186
9.253354667,-0.5645926207980145,-0.8886762894773392,-0.43530279982823367
9.263283667,-0.5567618382075095,-0.8581151937639876,-0.43530488405942513
9.273212667,-0.540452235617833,-0.8253021655019535,-0.4331708749048416
9.283141667,-0.5155559438885315,-0.7904097772775787,-0.4286838944295647
9.293070667,-0.4821572502756551,-0.7536134833907102,-0.42164750938528284
9.302999667,-0.44052773445295046,-0.7150920073070224,-0.4118909053503205
9.312928667,-0.3911168837027637,-0.6750275630259867,-0.39927345605220715
9.322857667,-0.33453860787463147,-0.6336057584366055,-0.38368853560172084
9.332785667,-0.271554165509099,-0.5910150649305017,-0.36506646083281313
9.342714667,-0.20305207511807613,-0.5474457730072518,-0.3433764966180152
9.352643667,-0.13002562627897385,-0.5030883901740998,-0.3186279027671845
9.362572667,-0.053548631763183134,-0.45813147881677146,-0.2908700403091311
9.372501667,0.025249920374285487,-0.4127589785875254,-0.26019158292103933
9.382430667,0.1052116455290316,-0.3671471057013507,-0.22671889604171247
9.392359667,0.18517430232471738,-0.3214609620854021,-0.19061365520493084
9.402288667,0.26399643869701783,-0.2758510123282838,-0.15206977750996123
9.412217667,0.34058052864535576,-0.23044959135798937,-0.11130973282136425
9.422145667,0.41389405505956417,-0.18536759174319958,-0.06858028401079257
9.432074667,0.48298809882654514,-0.14069145180629467,-0.024147689103331003
9.442003667,0.5470131234161317,-0.09648053145481128,0.02170759873541738
9.451932667,0.6052317775274846,-0.05276492861591475,0.06869666211266255
9.461861667,0.6570286558696625,-0.009543761637835392,0.11652814657713648
9.471790667,0.7019170499636688,0.03321607176171225,0.16491437746862356
9.481719667,0.7395427899350094,0.07558064509940897,0.21357730334060596
9.491648667,0.7696853327381113,0.11764922678461942,0.26225397791436944
9.501576667,0.7922562958128925,0.15955390444237158,0.31070130022084974
9.511505667,0.8072956638200337,0.20145850032580176,0.3586997598897769
9.521434667,0.8149659032165187,0.24355664313633643,0.4060559644480134
9.531363667,0.8155442039969621,0.28606885929365905,0.45260375060900077
9.541292667,0.8094130386064654,0.32923857405583584,0.49820371187712476
9.551221667,0.7970491996872291,0.37332697198289233,0.5427410324021793
9.561150667,0.7790114636979398,0.4186067523935205,0.5861216191504764
9.571079667,0.7559270312097042,0.46535491562624404,0.6282666674237131
9.581007667,0.7284769148341894,0.5138448105887956,0.6691059520627668
9.590936667,0.6973804793477678,0.5643377434883743,0.7085702729876387
9.600865667,0.6633793841805201,0.61707447948478,0.7465835725715414
9.610794667,0.6272212323156974,0.6722669633733379,0.7830552742465086
9.620723667,0.5896432814391356,0.730090553072848,0.8178733709919908
9.630652667,0.551356608045283,0.7906770148468305,0.8508987316066897
9.640581667,0.5130311217883895,0.8541084820575755,0.8819610105232997
9.650510667,0.4752818033691923,0.920412533512164,0.9108564623119719
9.660438667,0.4386564902546922,0.9895585021690982,0.9373478826118774
9.670367667,0.403625470661767,1.061455078102327,0.961166814827635
9.680296667,0.37057308053101295,1.135949220605735,0.9820180633878661
9.690225667,0.33979144379467063,1.2128263450165868,0.9995864365252121
9.700154667,0.31147646039661586,1.29181170448724,1.0135455150756696
9.710083667,0.2857261265458685,1.3725728514611695,1.023568125988207
9.720012667,0.26254125685731544,1.454723043874025,1.0293381046516996
9.729941667,0.24182865530838563,1.5378254606237187,1.0305628661088932
9.739869667,0.2234067405172419,1.6213981086149696,1.0269862732475825
9.749798667,0.20701356490074632,1.704919332270932,1.0184012886425198
9.759727667,0.19231707808253415,1.787833862099337,1.0046619210754646
9.769656667,0.17892738130477265,1.8695593458958983,0.9856940190120721
9.779585667,0.16641061514697822,1.9494932840041341,0.9615045116159746
9.789514667,0.15430403161738246,2.0270202401119497,0.932188746890737
9.799443667,0.1421317351611516,2.101519136350604,0.8979356245851866
9.809372667,0.12942054342231016,2.172370389975699,0.859030270130937
9.819300667,0.11571542206958184,2.2389626317117526,0.8158540482861122
9.829229667,0.10059398851225256,2.3006987748868277,0.7688817745299222
9.839158667,0.08367965190856184,2.3570012766714536,0.7186760505604026
9.849087667,0.06465305234694046,2.4073165333604303,0.6658787282217314
9.859016667,0.04326156816021414,2.451118460734421,0.6111995939350973
9.868945667,0.019326762976881687,2.4879114078860307,0.5554024629237208
9.878874667,-0.0072502699944396965,2.517232620932002,0.4992889775440916
9.888803667,-0.036485649182305374,2.5386544992705753,0.44368051197593583
9.898732667,-0.0683114830823539,2.551786867069147,0.3893986873329578
9.908660667,-0.10257662984953438,2.556279422382081,0.3372450853485053
9.918589667,-0.13904938522773802,2.551824440832319,0.2879808051256271
9.928518667,-0.17742204614399268,2.5381597197371826,0.24230653157772322
9.938447667,-0.21731728516258203,2.5150716698198217,0.20084377760355782
9.948376667,-0.25829624520041317,2.482398406709039,0.16411792879922252
9.958305667,-0.29986822803773683,2.4400326667195076,0.1325436635603755
9.968234667,-0.34150180830844845,2.3879243675953865,0.10641324602263702
9.978162667,-0.3826371597513943,2.32608264788324,0.08588809599175443
9.988091667,-0.4226993345781347,2.2545772409276075,0.0709939278063328
9.998020667,-0.46111219091464467,2.1735390662639706,0.06161961809613114
10.00794967,-0.4973126176523457,2.0831599513014583,0.05751981537676323
10.01787867,-0.530764661637212,1.9836914314687146,0.058321154607787695
10.02780767,-0.5609731225491522,1.8754426201184333,0.06353180241475118
10.03773667,-0.5874961531963859,1.7587771915836612,0.07255394475041783
10.04766567,-0.609956396282399,1.6341095795324447,0.08469874250790453
10.05759367,-0.6280502104053296,1.5019005520375104,0.09920322259870824
10.06752267,-0.641554591475332,1.3626523764734113,0.1152485438902196
10.07745167,-0.6503314803812886,1.2169038242205474,0.13197908077315812
10.08738067,-0.6543292600939491,1.0652252818742427,0.14852179861000886
10.09730967,-0.6535813786863052,0.9082142279334424,0.16400544586629448
10.10723867,-0.6482021787227036,0.746491298336877,0.17757914787250226
10.11716767,-0.6383801553053052,0.5806971001434665,0.18843005049660544
10.12709667,-0.6243689910810115,0.41148984452123644,0.19579972337879206
10.13702567,-0.6064768146272566,0.23954376758955806,0.19899908609460823
10.14695367,-0.5850541919583526,0.06554820374434848,0.19742166252575052
10.15688267,-0.5604813900855151,-0.10979291493053793,0.19055499847387283
10.16681167,-0.5331554528422706,-0.28576142548328026,0.17799009739631488
10.17674067,-0.5034776088273198,-0.4616254916674199,0.15942874266468893
10.18666967,-0.47184149165321926,-0.6366406699796572,0.134688588223833
10.19659867,-0.4386225931292518,-0.8100517539075383,0.1037059209978059
10.20652717,-0.40416929108497013,-0.9810955799900751,0.06653603203825822
10.21645617,-0.368795699508788,-1.1490048657050869,0.02335117742201167
10.22638417,-0.3327764870444597,-1.313013026338726,-0.025563837044885844
10.23631317,-0.29634370985064806,-1.47235980703683,-0.07981834719452688
10.24624217,-0.2596856161770616,-1.6262974858356756,-0.13892461665719372
10.25617117,-0.22294731180382976,-1.774097366579775,-0.20230845003797973
10.26610017,-0.18623313339427652,-1.9150562933070874,-0.26932129228341767
10.27602917,-0.1496105599322118,-2.048502977587951,-0.33925342985064433
10.28595817,-0.11311549179792212,-2.1738040252068456,-0.4113479028053379
10.29588717,-0.07675872742871702,-2.2903696572454284,-0.4848147675383056
10.30581517,-0.04053345247303469,-2.3976592172693065,-0.5588454072507764
10.31574417,-0.004423515256160836,-2.4951866168314747,-0.6326266489645728
10.32567317,0.03158780353827961,-2.5825258794433634,-0.705354486433514
10.33560217,0.06750889516856201,-2.659316894369777,-0.7762472193238064
10.34553117,0.10333123269552061,-2.725271395809685,-0.8445578148980062
10.35546017,0.13902154726667137,-2.780179060788296,-0.9095853022544905
10.36538917,0.17451521566522923,-2.8239134952895633,-0.9706850323145318
10.37531817,0.209711244397927,-2.8564377759526582,-1.0272776724523398
10.38524617,0.24446914430337996,-2.8778091520477886,-1.07885683749125
10.39517517,0.2786078826044411,-2.8881825005549095,-1.1249952775616971
10.40510417,0.3119069902713435,-2.8878121687104255,-1.1653495466425077
10.41503317,0.3441097993461019,-2.87705192637714,-1.1996630696922137
10.42496217,0.3749286904327787,-2.8563528685467623,-1.2277675215659465
10.43489117,0.40405214679578055,-2.8262592338003203,-1.2495824402658096
10.44482017,0.43115334145169393,-2.7874022164835357,-1.2651130312874799
10.45474917,0.4558999300755067,-2.740491935960077,-1.2744461799754436
10.46467717,0.4779646860357977,-2.6863077833689712,-1.2777447639268147
10.47460617,0.4970365927500852,-2.6256873992984664,-1.2752404325123263
10.48453517,0.5128319999552696,-2.559514550328146,-1.2672250858971625
10.49446417,0.5251054508493415,-2.488706172555572,-1.2540413386532394
10.50439317,0.5336597923699475,-2.4141988389154956,-1.236072291871047
10.51432217,0.5383551878410744,-2.336934887287396,-1.2137309595716659
10.52425117,0.5391166588349521,-2.2578484219305555,-1.1874496967732298
10.53418017,0.5359397933261257,-2.1778513768838623,-1.1576699568600843
10.54410817,0.5288942745296136,-2.09781981288876,-1.1248326674913522
10.55403717,0.518124915451977,-2.0185806149392582,-1.0893694623388184
10.56396617,0.5038499357772984,-1.9408987685929868,-1.0516949470977375
10.57389517,0.4863562987641719,-1.8654654173662655,-1.0122001190205805
10.58382417,0.4659920437435388,-1.7928869328720065,-0.9712470042083106
10.59375317,0.44315570690576156,-1.7236752524817593,-0.9291645281118184
10.60368217,0.4182831122488492,-1.658239745923437,-0.8862455932670597
10.61361117,0.39183201821229036,-1.5968808569503412,-0.8427453057350295
10.62353917,0.36426530013367997,-1.5397857291641766,-0.7988802698005363
10.63346817,0.33603351223373784,-1.4870259699944302,-0.7548288601910127
10.64339717,0.30755778863109323,-1.438557639667047,-0.7107323817463735
10.65332617,0.27921409752930976,-1.3942234812691536,-0.6666970354502766
10.66325517,0.25131984319086553,-1.3537573443043316,-0.6227966222760122
10.67318417,0.22412370519824532,-1.3167907060420336,-0.579075925427625
10.68311317,0.19779941030755077,-1.2828611641146013,-0.535554708696549
10.69304217,0.1724438611782679,-1.2514227534288056,-0.49223224604204235
10.70297017,0.14807972875723668,-1.2218579193025483,-0.4490922520729177
10.71289917,0.12466229128186838,-1.1934909479165088,-0.40610802012648045
10.72282817,0.10209000885687114,-1.1656026128921106,-0.36324750853407456
10.73275717,0.08021808265074448,-1.1374457478577311,-0.3204780666011067
10.74268617,0.05887407662727627,-1.1082614065740717,-0.27777047935162835
10.75261517,0.03787458682296696,-1.0772952311925263,-0.23510204659487766
10.76254417,0.01704193285507361,-1.0438136205799808,-0.19245849835379691
10.77247317,-0.0037800847281319163,-1.007119277791255,-0.14983467344584248
10.78240217,-0.024712181969974715,-0.9665657201802487,-0.10723402790888288
10.79233017,-0.04582798327514247,-0.921570356940539,-0.06466716497174504
10.80225917,-0.06714524678790333,-0.8716257760742644,-0.02214966044565623
10.81218817,-0.08862017158095159,-0.8163089357759379,0.020300517736267173
10.82211717,-0.11014487308127552,-0.755288024782994,0.06266572414076033
10.83204617,-0.13154798832972317,-0.6883268422955754,0.10493127001153471
10.84197517,-0.15259827882151256,-0.6152866470117956,0.1470878221012071
10.85190417,-0.1730110213453636,-0.5361255281050871,0.18913345143400634
10.86183317,-0.19245690110084074,-0.4508954462173947,0.23107522769959224
10.87176117,-0.21057303687529663,-0.3597371669599814,0.27293023940410754
10.88169017,-0.2269756749662646,-0.26287335368560527,0.31472589349339236
10.89161917,-0.24127399650095063,-0.16060009795250046,0.35649933064973893
10.90154817,-0.25308440963976575,-0.05327715182015632,0.3982958003112099
10.91147717,-0.26204466478259736,0.05868289882783354,0.44016588134527157
10.92140617,-0.2678271527377943,0.17482629756790144,0.482161510428451
10.93133517,-0.2701508244806368,0.2946703892361449,0.5243308826802314
10.94126317,-0.26879129265251284,0.4177162396650466,0.5667124029939689
10.95119217,-0.26358881606343065,0.5434612902257604,0.6093279728829897
10.96112117,-0.2544540059450902,0.671411675330126,0.6521759784228315
10.97105017,-0.2413712103301079,0.8010937823550314,0.6952243868181899
10.98097917,-0.22439962453435058,0.9320646090341197,0.7384043572618381
10.99090817,-0.20367224462229502,1.0639204823669153,0.7816047323873473
11.00083717,-0.1793928355403784,1.1963037477704739,0.8246677171090474
11.01076617,-0.1518311343251414,1.3289071127670662,0.8673859926971857
11.02069417,-0.12131655508927876,1.4614754254666613,0.9095014674275971
11.03062317,-0.08823070524679619,1.5938047711499324,0.9507058274882868
11.04055217,-0.052999056763960446,1.7257388690609652,0.9906430083311969
11.05048117,-0.016082134349041825,1.857162841713127,1.0289136426520982
11.06041017,0.022033424106445876,1.9879945146350193,1.0650814531894968
11.07033917,0.06084361531438133,2.1181734935145333,1.0986814598380614
11.08026817,0.09983536733508389,2.2476483612726015,1.1292297855738012
11.09019717,0.13849419706703153,2.3763624307551514,1.1562347936131476
11.10012617,0.17631110747675507,2.504238559918808,1.1792092673827075
11.11005417,0.21278866063598204,2.631163567323845,1.197683331234481
11.11998317,0.2474462133466236,2.7569727729480022,1.211217774607011
11.12991217,0.27982435281298235,2.881435147085104,1.2194173778618043
11.13984117,0.3094886199396495,3.004239500528272,1.2219437694504154
11.14977017,0.3360326476639069,3.1249821095340793,1.2185273114330302
11.15969917,0.35908085979018706,3.2431561464850396,1.2089775353126337
11.16962817,0.37829086915469984,3.3581432824315383,1.1931917205566873
11.17955717,0.39335569068715176,3.469207838692528,1.1711612952613706
11.18948517,0.40400585691670776,3.5754938844200357,1.1429758242042716
11.19941417,0.41001149807071186,3.676025688710112,1.1088244345439724
11.20934342,0.4111844267991083,3.7697119144792324,1.0689946185726762
11.21927242,0.4073802457339753,3.8553538654729516,1.0238684427547302
11.22920142,0.39850047199750666,3.931657963239338,0.9739162737375926
11.23913042,0.3844946462179256,3.9972524549283337,0.9196882002809279
11.24905942,0.36536236632570224,4.050708166017884,0.8618033879534251
11.25898742,0.34115516093439974,4.090562944388099,0.8009376561923652
11.26891642,0.311978096423793,4.115349310841613,0.7378096153217011
11.27884542,0.2779909993218059,4.123624737728438,0.6731657387396073
11.28877442,0.23940917472991774,4.114003913056269,0.6077647669008645
11.29870342,0.1965035145971396,4.085192301376055,0.5423618451025037
11.30863242,0.14959991525677718,4.036020276490071,0.4776927922285251
11.31856142,0.09907795542477381,3.965477070209401,0.41445888858608965
11.32849042,0.04536881414512486,3.8727437548656445,0.35331255954278873
11.33841942,-0.01104757510466981,3.7572244556237537,0.29484431378759435
11.34834742,-0.06964613362449724,3.6185749725390655,0.2395712622360378
11.35827642,-0.12986100923869942,3.4567279828504534,0.18792748878911092
11.36820542,-0.19109070076400103,3.2719139947792844,0.14025646975710498
11.37813442,-0.25270389977830826,3.064677242359821,0.09680565914076131
11.38806342,-0.3140459763282202,2.8358857561184974,0.057723289711560447
11.39799242,-0.37444599938094164,2.5867349259423156,0.023057392318561066
11.40792142,-0.43322416429333266,2.3187439968914307,-0.007242999999865391
11.41784942,-0.48969950489803843,2.033745108806304,-0.033324535394649864
11.42777842,-0.543197792687332,1.7338647042671058,-0.05542423486803472
11.43770742,-0.5930595595483215,1.4214973791185246,-0.07386236382499388
11.44763642,-0.6386482128318424,1.0992725222421356,-0.08903369566229617
11.45756542,-0.6793582339211423,0.7700143694643412,-0.10139740433816338
11.46749442,-0.714623458221531,0.4366963619639178,-0.1114658354741639
11.47742342,-0.7439254229254428,0.10239093510790948,-0.11979240983267778
11.48735242,-0.7668017406085239,-0.2297839449053239,-0.12695890626843687
11.49728142,-0.7828544178651667,-0.5567200434386871,-0.1335623478231578
11.50720942,-0.7917579969431554,-0.8753743958786028,-0.14020167644335402
11.51713842,-0.7932673602222589,-1.1828236037744388,-0.1474643643367636
11.52706742,-0.7872250030710443,-1.476315452040553,-0.1559130951898836
11.53699642,-0.7735675489789812,-1.7533165628379357,-0.1660726692060993
11.54692542,-0.7523312544224626,-2.011555007307937,-0.178417336743589
11.55685442,-0.723656237695202,-2.249057031098861,-0.1933588265700821
11.56678342,-0.6877891754210393,-2.464177288132136,-0.21123538303820252
11.57671142,-0.6450842470870901,-2.655622197370611,-0.23230214447366038
11.58664042,-0.5960021667065627,-2.8224662245619445,-0.25672317886843277
11.59656942,-0.541107208218019,-2.9641610395735873,-0.2845654538972922
11.60649842,-0.481062191682875,-3.080537613924705,-0.3157949741975917
11.61642742,-0.41662144076816504,-3.1718014117992843,-0.35027527937590186
11.62635642,-0.3486217491354454,-3.2385209006319515,-0.38776845480794486
11.63628542,-0.27797141362113026,-3.281609671254942,-0.42793874867696585
11.64621442,-0.2056374167415931,-3.302302518433522,-0.47035880479856496
11.65614242,-0.13263087794945932,-3.3021258975618575,-0.5145184197669622
11.66607142,-0.05999094592428685,-3.2828632505078126,-0.5598356325831443
11.67600042,0.011232626768127744,-3.2465157886781264,-0.6056698689387908
11.68592942,0.07999790402034371,-3.1952594336600755,-0.6513367941551433
11.69585842,0.145289774149676,-3.1313987374461525,-0.6961244745582613
11.70578742,0.20613906216251665,-3.0573187219637323,-0.739310400879261
11.71571642,0.2616412089777399,-2.9754356755792686,-0.7801788856094984
11.72564542,0.31097395910622433,-2.888148008303025,-0.8180383118623721
11.73557342,0.3534135153483464,-2.797788290546803,-0.8522376928772437
11.74550242,0.38834867213992924,-2.706577585161462,-0.8821820084795784
11.75543142,0.41529251990618865,-2.6165831371477086,-0.9073458233719559
11.76536042,0.4338914108437611,-2.529680414690128,-0.9272847619641083
11.77528942,0.4439309830310026,-2.4475203960878624,-0.941644509279019
