Time (s),Acceleration x (m/s^2),Acceleration y (m/s^2),Acceleration z (m/s^2)
3.003579792,-0.5910272002,3.572484255,9.870393753
3.008335105,-0.5479564071,3.519842148,9.439684868
3.013090417,-0.5144568682,3.397808075,9.049654961
3.01784573,-0.5288137794,3.335594654,8.642875671
3.022601042,-0.5503492355,3.297309637,8.216953278
3.027356355,-0.5790630579,3.292523861,7.858029366
3.032111667,-0.6364908218,3.304488182,7.585247993
3.03686698,-0.6915257573,3.361915827,7.38664341
3.041622292,-0.7513462901,3.476771355,7.288537979
3.046377605,-0.8398807645,3.572484255,7.290930748
3.051132917,-0.9355936646,3.699303865,7.422535896
3.05588823,-1.03848505,3.881158352,7.613961697
3.060643542,-1.141376376,4.024727821,7.89870739
3.065398855,-1.256231904,4.17069006,8.190631866
3.070154167,-1.287338614,4.311866283,8.539983749
3.07490948,-1.232303619,4.484149456,8.896514893
3.079664792,-1.170090318,4.491328239,9.202795982
3.084420105,-1.088734269,4.491328239,9.425328255
3.089175417,-1.093519926,4.572684288,9.726823807
3.093930782,-0.9355936646,4.599005222,9.925428391
3.098686094,-0.7441678643,4.560719967,10.11206818
3.103441407,-0.6293123364,4.512863636,10.27478027
3.108196719,-0.5096712112,4.431507587,10.39920712
3.112952032,-0.3780659735,4.364508629,10.47099209
3.117707344,-0.2560320199,4.235296249,10.49013424
3.122462657,-0.1483550072,4.158725739,10.46381378
3.127217969,-0.05024927482,4.036691666,10.36331463
3.131973282,0.0239282269,3.943371773,10.21974564
3.136728594,0.05742774159,3.838087559,10.04028416
3.141483907,0.1196411327,3.766302824,9.8201437
3.146239219,0.1004985496,3.682554007,9.600004196
3.150994532,0.1148554832,3.608376503,9.425328255
3.155749844,0.1100698411,3.529413462,9.276973724
3.160505157,0.1363908947,3.476771355,9.214759827
3.165260469,0.1148554832,3.419343472,9.205188751
3.170015782,0.1220339537,3.37387991,9.20758152
3.174771094,0.1076770201,3.345165968,9.212367058
3.179526407,0.06221338734,3.330809116,9.193224907
3.184281719,0.01196411345,3.323630571,9.164510727
3.189037032,-0.03110669367,3.280559778,9.075976372
3.193792344,-0.1124626622,3.27577424,9.008976936
3.198547657,-0.1818545163,3.268595695,8.956335068
3.203303021,-0.2225325108,3.247060299,8.927620888
3.208058334,-0.2344966233,3.251846075,8.958727837
3.212813646,-0.2464607358,3.249453068,8.989834785
3.217568959,-0.2919243574,3.242274761,9.068798065
3.222324271,-0.3589234054,3.256631613,9.066405296
3.227079584,-0.3852444589,3.294916868,9.047262192
3.231834896,-0.4378865361,3.321237803,8.944371223
3.236590209,-0.5048855543,3.357130051,8.812766075
3.241345521,-0.5551348329,3.416950703,8.721838951
3.246100834,-0.6221339107,3.460021496,8.662017822
3.250856146,-0.6723831892,3.517449379,8.659625053
3.255611459,-0.7010970116,3.570091486,8.72423172
3.260366771,-0.7393822074,3.620340586,8.796015739
3.265122084,-0.7824530005,3.699303865,8.858229637
3.269877396,-0.8350951076,3.775874138,8.913264275
3.274632709,-0.8685946465,3.833301783,8.963513374
3.279388021,-0.9140582681,3.90030098,9.037691116
3.284143334,-0.9332008362,4.019941807,9.126225471
3.288898646,-0.9882357717,4.127619267,9.238688469
3.293653959,-0.9810572863,4.216153622,9.389435768
3.298409271,-0.9738788009,4.33340168,9.595218658
3.303164584,-0.9667003751,4.388436794,9.889535904
3.307919896,-0.9954141974,4.465006828,10.15513897
3.312675209,-0.9643075466,4.476971149,10.3776722
3.317430521,-0.8853443861,4.484149456,10.47577763
3.322185834,-0.7800601721,4.42672205,10.50688457
3.326941146,-0.6580262184,4.323830605,10.38006496
3.331696459,-0.5264210105,4.201796532,10.17906761
3.336451771,-0.394815743,4.086941242,9.932606697
3.341207084,-0.2464607358,3.957728624,9.693324089
3.345962396,-0.1244267747,3.864408493,9.485149384
3.350717709,-0.02871387079,3.790230989,9.260223389
3.355473073,0.04546362907,3.704089403,9.064012527
3.360228334,0.1148554832,3.641875982,8.846264839
3.364983698,0.1842473447,3.591626883,8.618947029
3.369739011,0.1962114573,3.567698479,8.429914474
3.374494323,0.2488535494,3.529413462,8.245666504
3.379249636,0.2584248483,3.467200041,8.073383331
3.384004948,0.2895315289,3.443271875,7.946564198
3.388760261,0.3110669553,3.409772158,7.891529083
3.393515573,0.2823530734,3.390629768,7.89870739
3.398270886,0.1674975902,3.43609333,7.989634991
3.403026198,0.04785645381,3.488735437,8.140382767
3.407781511,-0.08374879509,3.550948858,8.341380119
3.412536823,-0.2321037948,3.663411379,8.568697929
3.417292136,-0.3493520916,3.744767427,8.779266357
3.422047448,-0.4546363056,3.818944931,8.953942299
3.426802761,-0.6029912829,3.907479286,9.111868858
3.431558073,-0.6747759581,3.9625144,9.267401695
3.436313386,-0.732203722,4.043870449,9.420542717
3.441068698,-0.8111668825,4.110869408,9.602396965
3.445824011,-0.8805587292,4.14197588,9.834501266
3.450579323,-0.9188438654,4.187439442,10.07139015
3.455334636,-0.9690931439,4.206582069,10.31306553
3.460089948,-0.9786644578,4.213760853,10.4853487
3.464845261,-0.9667003751,4.163511276,10.55713367
3.469600573,-0.9667003751,4.053441525,10.51645565
3.474355886,-0.9523434043,3.924229145,10.38245773
3.479111198,-0.9451649189,3.792623997,10.13121128
3.483866511,-0.9379864931,3.668197155,9.8201437
3.488621823,-0.9355936646,3.560520172,9.444471359
3.493377136,-0.9020941257,3.443271875,9.121439934
3.498132448,-0.9044869542,3.371487141,8.841479301
3.502887761,-0.8925228715,3.352344513,8.585447311
3.507643073,-0.9212366939,3.345165968,8.382058144
3.512398386,-0.9355936646,3.366701365,8.260024071
3.517153698,-0.9451649189,3.395415306,8.164310455
3.521909011,-0.9714859724,3.407379389,8.114061356
3.526664323,-0.9643075466,3.409772158,8.068597794
3.531419636,-0.9308080077,3.416950703,8.011170387
3.536174948,-0.8853443861,3.448057413,7.968099594
3.540930261,-0.8590233326,3.505485058,7.960920811
3.545685573,-0.8398807645,3.594019651,8.018348694
3.550440886,-0.8183453679,3.689732552,8.173882484
3.555196198,-0.8159525394,3.816552162,8.456234932
3.559951511,-0.7968099117,3.984049797,8.853444099
3.564706823,-0.7776673436,4.10608387,9.363115311
3.569462136,-0.7657032609,4.213760853,9.824930191
3.574217448,-0.7465606928,4.26879549,10.2149601
3.578972761,-0.5814558864,4.285545349,10.48295593
3.583728073,-0.3996013701,4.249652863,10.62891865
3.588483386,-0.2368894368,4.14197588,10.58824062
3.593238698,-0.07417750359,3.952943087,10.33220863
3.597994011,0.03110669367,3.761517286,9.920642853
3.602749323,0.1292124242,3.589233875,9.456435204
3.607504636,0.2297109663,3.452843189,8.997013092
3.612259948,0.3254238665,3.397808075,8.595019341
3.617015261,0.3828516304,3.352344513,8.260024071
3.621770573,0.3876372576,3.330809116,7.936992645
3.626525886,0.3852444589,3.385843992,7.716853142
3.631281198,0.3852444589,3.443271875,7.52782011
3.636036511,0.3541377485,3.529413462,7.417750359
3.640791823,0.3182454109,3.634697676,7.434499741
3.645547136,0.2584248483,3.718446493,7.477570534
3.650302448,0.2057827413,3.799802303,7.580461979
3.655057761,0.1483550072,3.8668015,7.704888821
3.659813073,0.0765703246,3.945764542,7.872386456
3.664568386,-0.007178467698,4.022335052,8.068597794
3.669323698,-0.07896314561,4.09172678,8.303094864
3.674079011,-0.1794617027,4.163511276,8.530412674
3.678834323,-0.2703889608,4.252045631,8.738588333
3.683589636,-0.3493520916,4.352544308,8.915657043
3.688344948,-0.404387027,4.405186653,9.054440498
3.693100261,-0.4139583111,4.450650215,9.145368576
3.697855573,-0.4354937077,4.491328239,9.2865448
3.702610886,-0.4905286431,4.560719967,9.451649666
3.707366198,-0.5718846321,4.613361835,9.647860527
3.712121511,-0.6053841114,4.651647091,9.896714211
3.716876823,-0.6843472719,4.685146809,10.10967541
3.721632136,-0.7513462901,4.692325115,10.29153061
3.726387448,-0.7968099117,4.634897232,10.40399265
3.731142761,-0.8470591903,4.584648132,10.35852909
3.735898073,-0.8805587292,4.462614059,10.19581699
3.740653386,-0.8853443861,4.352544308,9.930213928
3.745408698,-0.9140582681,4.240081787,9.631111145
3.750164011,-0.9044869542,4.132404804,9.327222824
3.754919323,-0.9355936646,4.055834293,9.078369141
3.759674636,-0.9260223508,4.022335052,8.920442581
3.764429948,-0.9523434043,4.007977962,8.807980537
3.769185261,-0.9834501147,3.98165679,8.796015739
3.773940573,-1.012163997,3.940979004,8.807980537
3.778695886,-1.040877819,3.914657831,8.848658562
3.783451198,-0.9954141974,3.862015724,8.84387207
3.788206511,-0.9762716293,3.795016766,8.788837433
3.792961823,-0.9499505758,3.701696634,8.712266922
3.797717136,-0.9068797827,3.622733593,8.609375954
3.802472448,-0.8733802438,3.570091486,8.504091263
3.807227761,-0.8614161611,3.529413462,8.437092781
3.811983073,-0.8183453679,3.522234917,8.386843681
3.816738334,-0.8279166222,3.560520172,8.396414757
3.821493646,-0.8542376757,3.601198196,8.453842163
3.826248959,-0.8781659007,3.675375462,8.535198212
3.831004271,-0.9236295223,3.761517286,8.628518105
3.835759584,-0.9499505758,3.873979807,8.72423172
3.840514896,-1.000199914,3.957728624,8.855836868
3.845270209,-1.052842021,4.065405846,8.965906143
3.850025521,-1.091127157,4.127619267,9.052047729
3.854780834,-1.10309124,4.168296814,9.119047165
3.859536146,-1.122233868,4.237689018,9.171689034
3.864291459,-1.107876897,4.256831646,9.181260109
3.869046771,-1.0863415,4.290330887,9.140582085
3.873802084,-1.064806104,4.299902439,9.092725754
3.878557396,-1.031306505,4.323830605,9.03051281
3.883312709,-1.002592683,4.350151539,8.989834785
3.888068021,-0.9834501147,4.352544308,8.963513374
3.892823334,-1.002592683,4.395615101,8.925228119
3.897578646,-1.012163997,4.409972191,8.889336586
3.902333959,-0.993021369,4.448257446,8.870193481
3.907089271,-0.9954141974,4.455435753,8.870193481
3.911844584,-0.9786644578,4.472185612,8.918049812
3.916599896,-0.9906286001,4.474578381,9.035298347
3.921355209,-0.9738788009,4.491328239,9.116654396
3.926110521,-0.9547362328,4.476971149,9.214759827
3.930865834,-0.9236295223,4.445864677,9.260223389
3.935621146,-0.8997012973,4.409972191,9.281759262
3.940376459,-0.8757730722,4.357329845,9.243474007
3.945131771,-0.7920243144,4.307080746,9.176474571
3.949887084,-0.7465606928,4.254438877,9.092725754
3.954642396,-0.6699903607,4.168296814,8.977870941
3.959397657,-0.6101697683,4.089334011,8.848658562
3.964152969,-0.5766702294,4.019941807,8.707481384
3.968908282,-0.5623133183,3.964907169,8.559126854
3.973663594,-0.5886343718,3.9170506,8.465806961
3.978418907,-0.5910272002,3.912265062,8.417949677
3.983174219,-0.6005984545,3.909872293,8.451449394
3.987929532,-0.6101697683,3.921836376,8.520841599
3.992684844,-0.6317051649,3.905086517,8.599804878
3.997440157,-0.6436693072,3.921836376,8.669196129
4.002195469,-0.6101697683,3.933800459,8.733802795
4.006950782,-0.6388836503,3.909872293,8.764909744
4.011706094,-0.626919508,3.943371773,8.800801277
4.016461407,-0.5886343718,3.945764542,8.84387207
4.021216719,-0.5168496966,3.9625144,8.918049812
4.025972032,-0.4402793646,3.964907169,8.97308445
4.030727344,-0.3684946895,4.024727821,9.023334503
4.035482657,-0.3469592929,4.089334011,9.095118523
4.040237969,-0.3230310678,4.185046673,9.198010445
4.044993282,-0.342173636,4.290330887,9.351150513
4.049748594,-0.3780659735,4.381258488,9.511469841
4.054503907,-0.4211367965,4.484149456,9.681360245
4.059259219,-0.4929214716,4.53918457,9.872786522
4.06401448,-0.5216353536,4.610969067,9.990034103
4.068769792,-0.5359922647,4.634897232,10.12642574
4.073525105,-0.5934200287,4.644468784,10.25563812
4.078280417,-0.6053841114,4.615755081,10.3226366
4.08303573,-0.6101697683,4.572684288,10.29392338
4.087791042,-0.6245267391,4.500899315,10.17428207
4.092546355,-0.650847733,4.429114819,10.04028416
4.097301667,-0.6604190469,4.331008911,9.908679008
4.10205698,-0.6915257573,4.252045631,9.757930756
4.106812292,-0.7178468108,4.216153622,9.635896683
4.111567605,-0.7633104324,4.165904045,9.535398483
4.116322917,-0.8087740541,4.168296814,9.401400566
4.12107823,-0.8470591903,4.139583111,9.260223389
4.125833542,-0.8853443861,4.084548473,9.064012527
4.130588855,-0.8709874153,4.051048756,8.841479301
4.135344167,-0.8757730722,4.02712059,8.614161491
4.14009948,-0.8590233326,3.988835335,8.429914474
4.14485474,-0.8422735929,3.984049797,8.329415321
4.149610053,-0.8303094506,3.979264021,8.267202377
4.154365365,-0.784845829,4.036691666,8.209774017
4.159120678,-0.7489534616,4.103690624,8.243273735
4.16387599,-0.7417750359,4.146761417,8.295916557
4.168631303,-0.6963114142,4.177868366,8.394021988
4.173386615,-0.6628118753,4.208974838,8.480163574
4.178141928,-0.6005984545,4.206582069,8.559126854
4.18289724,-0.5216353536,4.187439442,8.595019341
4.187652553,-0.457029134,4.161118507,8.61655426
4.192407865,-0.404387027,4.144368649,8.575876236
4.197163178,-0.3637090325,4.108476639,8.563912392
4.20191849,-0.380458802,4.151547432,8.568697929
4.206673803,-0.4115654826,4.163511276,8.638090134
4.211429115,-0.4953143001,4.225724697,8.752944946
4.216184428,-0.5551348329,4.323830605,8.908478737
4.220939688,-0.6125625968,4.417150497,9.095118523
4.225695001,-0.6580262184,4.498506546,9.300901413
4.230450313,-0.6891329288,4.601397991,9.456435204
4.235205626,-0.7178468108,4.630111694,9.616754532
4.239960938,-0.7393822074,4.634897232,9.791430473
4.244716251,-0.7704889178,4.627718925,9.94696331
4.249471563,-0.813559711,4.615755081,10.09053326
4.254226876,-0.8231309652,4.584648132,10.17906761
4.258982188,-0.866201818,4.52482748,10.24845982
4.263737501,-0.8973084688,4.421936035,10.20538902
4.268492813,-0.8997012973,4.352544308,10.11924744
4.273248126,-0.8973084688,4.177868366,9.95414257
4.278003438,-0.8590233326,4.046263218,9.753145218
4.282758698,-0.8279166222,3.893122435,9.544969559
4.287514011,-0.7824530005,3.737588882,9.296115875
4.292269323,-0.7417750359,3.574877024,9.052047729
4.297024636,-0.6819544435,3.440878868,8.767302513
4.301779948,-0.6484549642,3.302095175,8.465806961
4.306535261,-0.6077769399,3.182454109,8.224131584
4.311290573,-0.5527420044,3.072384357,8.015955925
4.316045886,-0.5647061467,2.993421078,7.843672752
4.320801198,-0.5862415433,2.95752883,7.635497093
4.325556511,-0.6340979934,2.947957516,7.479963779
4.330311823,-0.7058826685,3.00538516,7.369893551
4.335067136,-0.8159525394,3.098705292,7.334001541
4.339822396,-0.9188438654,3.251846075,7.439285755
4.344577709,-1.016949654,3.428914785,7.695317745
4.349333021,-1.081555843,3.646661758,8.118846893
4.354088334,-1.127019525,3.828516245,8.647661209
4.358843646,-1.16769743,4.0127635,9.188439369
4.363598959,-1.148554921,4.197010994,9.681360245
4.368354271,-1.112662554,4.350151539,10.12881851
4.373109584,-1.067198873,4.476971149,10.57627583
4.377864896,-0.9810572863,4.55354166,10.99741268
4.382620209,-0.7968099117,4.515256405,11.33480072
4.387375521,-0.6484549642,4.469792843,11.56211948
4.392130834,-0.524028182,4.359723091,11.63629627
4.396886094,-0.4450650215,4.237689018,11.55015469
4.401641407,-0.3852444589,4.115654945,11.30369377
4.406396719,-0.3493520916,4.000799656,10.86580753
4.411152032,-0.327816695,3.933800459,10.32024384
4.415907344,-0.2608176768,3.833301783,9.784252167
4.420662657,-0.1962114573,3.711267948,9.25783062
4.425417969,-0.1914258152,3.598805189,8.784051895
4.430173282,-0.1938186288,3.505485058,8.367700577
4.434928594,-0.2129612118,3.452843189,7.984848976
4.439683855,-0.2847459018,3.407379389,7.652246952
4.444439167,-0.3493520916,3.433700562,7.377072334
4.44919448,-0.394815743,3.450450182,7.118647575
4.453949792,-0.4474578202,3.503092289,6.908079147
4.458705105,-0.4977070987,3.536591768,6.704689026
4.463460417,-0.5527420044,3.579662561,6.549155712
4.46821573,-0.5958128572,3.646661758,6.453442574
4.472971042,-0.6628118753,3.759124279,6.470192432
4.477726355,-0.732203722,3.905086517,6.606583118
4.482481667,-0.8111668825,4.10608387,6.924828529
4.48723698,-0.8781659007,4.345366001,7.420143127
4.49199224,-0.9355936646,4.601397991,8.044670105
4.496747553,-0.993021369,4.802394867,8.657232285
4.501502865,-0.9643075466,4.957928658,9.221938133
4.506258178,-0.9595218897,5.072783947,9.753145218
4.51101349,-0.9044869542,5.127819061,10.29392338
4.515768803,-0.8350951076,5.11585474,10.90170002
4.520524115,-0.7465606928,5.046463013,11.39940739
4.525279428,-0.6604190469,4.941178799,11.80857944
4.530034688,-0.5718846321,4.79521656,12.09093285
4.534790001,-0.5096712112,4.606183529,12.23689461
4.539545313,-0.4689932466,4.445864677,12.24885941
4.544300626,-0.4785645306,4.292723656,12.11246777
4.549055938,-0.524028182,4.139583111,11.8660078
4.553811251,-0.5766702294,3.988835335,11.49033451
4.558566563,-0.6293123364,3.840480328,11.00219822
4.563321876,-0.7178468108,3.708875179,10.43988514
4.568077188,-0.784845829,3.591626883,9.865608215
4.572832448,-0.8279166222,3.495913982,9.322437286
4.577587761,-0.8853443861,3.395415306,8.791230202
4.582343073,-0.9236295223,3.311666489,8.224131584
4.587098386,-1.009771109,3.237488985,7.680960655
4.591853698,-1.057627559,3.189632654,7.219145775
4.596609011,-1.076770186,3.194418192,6.848258495
4.601364323,-1.136590719,3.223132133,6.573083878
4.606119636,-1.172483087,3.297309637,6.374479294
4.610874948,-1.21555388,3.37387991,6.290730953
4.615630209,-1.217946768,3.486342669,6.343372822
4.620385521,-1.203589797,3.632304668,6.513263226
4.625140834,-1.165304661,3.790230989,6.817151546
4.629896146,-1.15094769,3.974478483,7.216753006
4.634651459,-1.112662554,4.139583111,7.678567886
4.639406771,-1.043270707,4.304687977,8.126026154
4.644162084,-0.9547362328,4.436293125,8.549555779
4.648917396,-0.8303094506,4.541577339,8.908478737
4.653672657,-0.6628118753,4.606183529,9.276973724
4.658427969,-0.4881358147,4.649254322,9.650253296
4.663183282,-0.3158525825,4.694717884,10.04028416
4.667938594,-0.1842473447,4.699503899,10.3848505
4.672693907,-0.1172483116,4.706682205,10.73898792
4.677449219,-0.05024927482,4.692325115,11.01655579
4.682204532,-0.01674975827,4.666004181,11.15533924
4.686959792,0.04785645381,4.615755081,11.16251755
4.691715105,0.0382851623,4.570291042,11.04526901
4.696470417,0.02153540403,4.488935471,10.83470058
4.70122573,-0.007178467698,4.36211586,10.52124119
4.705981042,-0.0382851623,4.237689018,10.11685371
4.710736355,-0.02871387079,4.086941242,9.655039787
4.715491667,-0.06460621208,3.964907169,9.200403214
4.72024698,-0.1411765367,3.864408493,8.803194046
4.72500224,-0.2033899277,3.773481369,8.382058144
4.729757553,-0.3014956415,3.706482172,7.968099594
4.734512865,-0.390030086,3.672982693,7.604390144
4.739268178,-0.4642075896,3.656233072,7.317251682
4.74402349,-0.5694918036,3.687339783,7.109076023
4.748778803,-0.6939185858,3.711267948,7.063612461
4.753534115,-0.7944171429,3.785445452,7.121040344
4.758289428,-0.8709874153,3.8668015,7.341179848
4.763044688,-0.9475577474,3.943371773,7.601997375
4.767800001,-0.9858429432,4.000799656,7.925028801
4.772555313,-1.012163997,4.031906128,8.257631302
4.777310626,-1.05523479,4.063013077,8.542376518
4.782065938,-1.0863415,4.115654945,8.84387207
4.786821251,-1.122233868,4.130012035,9.152546883
4.791576563,-1.138983607,4.163511276,9.432506561
4.796331823,-1.10309124,4.175475597,9.729216576
4.801087136,-1.079162955,4.177868366,9.999606133
4.805842448,-1.024128079,4.204189301,10.19103146
4.810597761,-0.9451649189,4.206582069,10.34656525
4.815353073,-0.866201818,4.192225456,10.38724327
4.820108386,-0.8470591903,4.177868366,10.42313576
4.824863646,-0.8255237937,4.161118507,10.40877819
4.829618959,-0.8183453679,4.10608387,10.30827999
4.834374271,-0.7800601721,4.058227062,10.16231823
4.839129584,-0.7633104324,3.969692707,9.918250084
4.843884896,-0.7250252366,3.905086517,9.580862045
4.848640209,-0.732203722,3.857230186,9.224330902
4.853395521,-0.7441678643,3.816552162,8.855836868
4.858150782,-0.7585247755,3.795016766,8.571090698
4.862906094,-0.7944171429,3.804588079,8.374878883
4.867661407,-0.8518448472,3.795016766,8.207381248
4.872416719,-0.8279166222,3.778266907,8.111668587
4.877172032,-0.8590233326,3.806980848,8.00638485
4.881927344,-0.8997012973,3.828516245,7.929814339
4.886682605,-0.9355936646,3.857230186,7.903493404
4.891437917,-0.9523434043,3.93140769,7.893921852
4.89619323,-0.9906286001,3.967299938,7.901100159
4.900948542,-0.9978070259,3.993621111,7.92742157
4.905703855,-0.9786644578,4.034298897,7.975277901
4.910459167,-0.9571290612,4.058227062,8.059026718
