Time (s),Acceleration x (m/s^2),Acceleration y (m/s^2),Acceleration z (m/s^2)
6.00417849,0.3428289448557991,-0.19401634926966604,-0.31868252320362905
6.008933751,0.34047590945880274,-0.15978665551385224,-0.3098274430963735
6.013689063,0.33936108605393295,-0.12379241967405354,-0.29587247676015155
6.018444376,0.34127694355748706,-0.08507060676822924,-0.27194548577862476
6.023199688,0.34796057836695005,-0.043121533965602116,-0.234079292754385
6.027954948,0.36104525011061983,0.0019329197072590208,-0.1796148337863783
6.032710261,0.38200392683618967,0.049261470728311246,-0.10750008956463901
6.037465573,0.4120846476508422,0.09731698664128043,-0.01846123758391265
6.042220886,0.452239973916692,0.14391336676531138,0.08496805252120265
6.046976146,0.5030550064276794,0.18637892495341635,0.19856336471085592
6.051731459,0.5646799072640754,0.2217720445003071,0.31666631729967076
6.056486771,0.636773393445098,0.24713935419856753,0.4325651371103947
6.061242084,0.7184633603362195,0.25979320009035467,0.5389730279972706
6.065997396,0.8083299569535374,0.2575837231918138,0.6285698246012095
6.070752657,0.9044153826247873,0.23914133112233807,0.6945661147431341
6.075507969,1.0042634554825236,0.20406770483721556,0.7312459215576275
6.080263282,1.1049904175544087,0.15305754240611572,0.7344449846366139
6.085018594,1.203386345675318,0.08793866255445887,0.7019269826671545
6.089773855,1.296044111116424,0.011624412189998427,0.6336291921007325
6.094529167,1.37951050286101,-0.07202093295649699,0.5317606821078775
6.09928448,1.4504522872121233,-0.1583964095275755,0.4007482899579103
6.104039792,1.5058287697603687,-0.2424447640202437,0.24703649905217243
6.108795053,1.5430617427334794,-0.318980329354952,0.07875579422090308
6.113550365,1.5601932480219844,-0.38304167642419434,-0.0947201591286028
6.118305678,1.5560211317886197,-0.43024369693164327,-0.2633044655970594
6.123060938,1.5302020299918013,-0.4571027750557298,-0.41678729695477024
6.127816251,1.4833116624241682,-0.46130949926104636,-0.5454569483147914
6.132571563,1.4168536142502954,-0.44192596048305094,-0.6407187918284756
6.137326876,1.3332104435278054,-0.39948912165043077,-0.6956760136156124
6.142082136,1.2355350293567855,-0.33600818355027007,-0.7056339850135446
6.146837448,1.1275853408098913,-0.2548523027100427,-0.6684906275281488
6.151592761,1.0135116668294235,-0.1605348413357788,-0.5849790099428575
6.156348073,0.8976108887168757,-0.05841028361650693,-0.4587357507339954
6.161103334,0.7840666066127481,0.04569150371234355,-0.29617916084412604
6.165858646,0.6766960748030629,0.14586316894909204,-0.10619385642984587
6.170613959,0.5787246066138304,0.2365171189599994,0.10036688918920722
6.175369271,0.49260547215359524,0.31275059862019716,0.31133448683936144
6.180124532,0.41989872860991095,0.3706514792627813,0.5139929350694414
6.184879844,0.36121646188694734,0.4075241951099152,0.69590824538039
6.189635157,0.3162353176289588,0.42202312898568933,0.8457589654501213
6.194390469,0.283770885223916,0.4141891390413148,0.9541057357835366
6.19914573,0.2619034858556857,0.38539302286360433,1.0140420978119213
6.203901042,0.24814205797378294,0.33819663032493563,1.0216781666247945
6.208656355,0.23961244691395236,0.27614732421120924,0.9764219280577903
6.213411667,0.23325798288481453,0.20352426612424307,0.8810384443666397
6.218166928,0.22604259660883771,0.12505577669340795,0.741483939375821
6.22292224,0.2151486357816605,0.04562626745034276,0.5665283175713307
6.227677553,0.19816228843800318,-0.030010473862218508,0.367194736638906
6.232432865,0.17323907785102075,-0.09749704140379811,0.1560570912099289
6.237188126,0.139240829109563,-0.15310493742101464,-0.05355515831262908
6.241943438,0.0958346569125085,-0.19392395491913436,-0.24839072879373075
6.246698751,0.04354463011423574,-0.2180008400889229,-0.4160939457513606
6.251454063,-0.0162517388332736,-0.22442191458070607,-0.5459538298344488
6.256209323,-0.08138697841490045,-0.21333663256296045,-0.6295389920409274
6.260964636,-0.14902729240773635,-0.1859216437346091,-0.6611815323548621
6.265719948,-0.2158506282150406,-0.14428801114700884,-0.6382843862458397
6.270475261,-0.27826715491314974,-0.09133774260621919,-0.5614392125008779
6.275230521,-0.3326647215906722,-0.030579427324191596,-0.4343550108478937
6.279985834,-0.3756586444314104,0.03408406175162884,-0.26361015109485014
6.284741146,-0.4043248273990066,0.09858087985501558,-0.05825125515714861
6.289496459,-0.4163976952827817,0.15889347153094685,0.17072972571650855
6.294251719,-0.4104190660294956,0.2112665791172652,0.4110046303802813
6.299007032,-0.3858299359522415,0.2523902928873308,0.6495681647331425
6.303762344,-0.3430031197698114,0.27955261455822383,0.8734128168761748
6.308517657,-0.2832198657935946,0.2907596474586843,1.0701889841624355
6.313272917,-0.20859740104076907,0.2848237144844345,1.2288232969704556
6.31802823,-0.12197662804524026,0.2614202006544581,1.3400711663247238
6.322783542,-0.026779893813697466,0.22111312398851177,1.3969820170454583
6.327538855,0.07315189639757196,0.1653481241614218,1.3952578659615011
6.332294115,0.17373506603632602,0.09641052529397225,1.3334883630611403
6.337049428,0.27082579808988616,0.017345935032820566,1.2132487040369717
6.34180474,0.3604046618242486,-0.06815826673092339,1.039051641018106
6.346560001,0.43875807552136176,-0.15593016602461562,0.8181517323031745
6.351315313,0.5026506530596561,-0.2415058460792893,0.5602088544476347
6.356070626,0.5494808030485842,-0.3203500970429528,0.27682768709022004
6.360825938,0.5774106708037052,-0.38809448110386485,-0.019001480652232054
6.365581198,0.5854612164469694,-0.440778804925089,-0.3135293819002375
6.370336511,0.5735643357137749,-0.4750800233430164,-0.5929082759069415
6.375091823,0.5425665052809181,-0.488512098011367,-0.8438537282230691
6.379847136,0.49418211213702196,-0.47958168846091226,-1.054278253020606
6.384602396,0.43089878045576513,-0.44788787292443333,-1.2138714411854559
6.389357709,0.3558409813226181,-0.39415909163732593,-1.3146049976172163
6.394113021,0.2726015214051407,-0.32022635819198575,-1.3511441061685099
6.398868334,0.18505288923251567,-0.22893733797921026,-1.3211486638394347
6.403623594,0.09715165632978963,-0.12402009837328778,-1.2254494993070262
6.408378907,0.012748904746137532,-0.009907600448996436,-1.0680863575842348
6.413134219,-0.06458211944709275,0.10846571227860127,-0.8561970626814563
6.417889532,-0.13169296435804434,0.22588510651233418,-0.5997517103050786
6.422644792,-0.1859770731413375,0.33708635851591123,-0.3111324470356683
6.427400105,-0.22545614089078936,0.4369897253993707,-0.004568205363178113
6.432155417,-0.2488375918749925,0.5209314452599338,0.30455600844771313
6.43691073,-0.255546525298416,0.5848866670569194,0.6004850846340647
6.44166599,-0.24573566131810945,0.6256762219206359,0.8679351637985143
6.446421303,-0.22027597314631317,0.6411477015958388,1.0929430633999904
6.451176615,-0.18072919029864243,0.6303196135994716,1.2636724149897092
6.455931876,-0.12930154821297826,0.5934765859804408,1.371125067917885
6.460687188,-0.06877638639348291,0.5322041967054554,1.4097101281147857
6.465442501,-0.002421907526513885,0.4493543120358695,1.3776302761190748
6.470197813,0.06612986652692962,0.3489358373058738,1.2770552507266275
6.474953073,0.13303570606716444,0.23593108695763396,1.1140649647225593
6.479708386,0.19442518516211516,0.11604382934589715,0.8983587521029414
6.484463698,0.2466113284610002,-0.004609290578551391,0.6427417430052782
6.489219011,0.2863173896785645,-0.1198473260007081,0.3624134366498429
6.493974271,0.3109034556715266,-0.2237930232370479,0.07409645833902652
6.498729584,0.31857217057501164,-0.31123674141303054,-0.20494542651336775
6.503484896,0.3085312736465264,-0.37797105753242805,-0.4579425143832355
6.508240209,0.28109262178158284,-0.42107066631758366,-0.6696452052300579
6.512995469,0.2376927958408551,-0.4390942295205527,-0.8272779444470371
6.517750782,0.18082832155403605,-0.43218949545613106,-0.9213616767811538
6.522506094,0.11390752869029161,-0.40209015282560834,-0.9463521198728831
6.527261355,0.041029617204268676,-0.35200168176785435,-0.9010499665130084
6.532016667,-0.03329155010453357,-0.2863826810125762,-0.788749615122862
6.53677198,-0.10443662791277546,-0.2106365864688448,-0.617105522416136
6.541527292,-0.1679981746132959,-0.13073556988450297,-0.39771040546373987
6.546282553,-0.2200812921082188,-0.0528034042584028,-0.1453976454351241
6.551037865,-0.25756456018369417,0.01731289336437088,0.12269916975232754
6.555793178,-0.2783023004435109,0.07445195510882777,0.3882753593276683
6.560548438,-0.2812549001665151,0.11449830546207801,0.6330995308395447
6.565303751,-0.26654076533695664,0.1346685992394219,0.8402856505657816
6.570059063,-0.2354104685159651,0.1337040973150896,0.9954982417838965
6.574814376,-0.1901495202097272,0.11195612758938732,1.0879974159928338
6.579569636,-0.1339199480486653,0.07135807930394736,1.1114397916886845
6.584324948,-0.0705525325637643,0.015284504873119274,1.0643677822573339
6.589080261,-0.004302090266741527,-0.05169471118089192,0.9503420179207706
6.593835521,0.060421251811864,-0.12414961503745424,0.7776987252357421
6.598590834,0.11933073210626702,-0.196192309330856,0.5589444673097369
6.603346146,0.168535998561418,-0.26191748360408507,0.3098325265650867
6.608101459,0.20479354974908837,-0.31584871222268524,0.04819473000723739
6.612856771,0.22571708481777483,-0.3533558922243436,-0.20737476416615938
6.617612032,0.22993140886758892,-0.37100998983567346,-0.4388749604167338
6.622367344,0.21715679499035653,-0.36684539993938436,-0.6301839020470711
6.627122657,0.18821591762249673,-0.340507768973836,-0.7681771571218757
6.631877917,0.14496197994474413,-0.2932754065428565,-0.843600715788522
6.63663323,0.09013363990848904,-0.22795411266912102,-0.8516444347183699
6.641388542,0.0271489382664821,-0.14865681755044377,-0.7921879457352228
6.646143855,-0.040144290039429875,-0.0604893758546821,-0.6697159002485117
6.650899115,-0.10774093683095602,0.030829008394359522,-0.4929221890657189
6.655654428,-0.17175294219708534,0.11937857851684584,-0.274042478833344
6.66040974,-0.228665990762921,0.19945267171128025,-0.027970346658995046
6.665165053,-0.2755623382537977,0.26594249056845176,0.22877614490942402
6.669920313,-0.3102973197424142,0.3146679374363763,0.47916394625323844
6.674675626,-0.33162084886242466,0.3426352841197623,0.706755690624603
6.679430938,-0.3392386429748249,0.34820878162535085,0.8967502837941795
6.684186198,-0.3338110562209715,0.33118965027557346,1.0368901226446194
6.688941511,-0.3168904402280675,0.29280185686270455,1.1181828063245187
6.693696823,-0.29080091754813736,0.23558940319738556,1.135398493364266
6.698452084,-0.25846724191420717,0.16323437852947298,1.0873187710736751
6.703207396,-0.22320194670382607,0.08030881512490591,0.9767286608341585
6.707962709,-0.18846229002784193,-0.008023395275139431,0.8101598539962687
6.712718021,-0.15759070602567518,-0.09633551432319046,0.5974097487194132
6.717473282,-0.13355457646368404,-0.1792767702701556,0.3508759780327211
6.722228594,-0.11870293116240918,-0.25189882418147946,0.084758028323234
6.726983907,-0.1145587631509424,-0.30994840426539577,-0.18581554662465163
6.731739219,-0.12166546935434863,-0.35010734184370357,-0.4456749667503166
6.73649448,-0.13950391116787292,-0.37016592314288504,-0.680457871223373
6.741249792,-0.16649229374060812,-0.36912149539015154,-0.8773741835721367
6.746005105,-0.20007452030962167,-0.34720065947463674,-1.0258544739590314
6.750760365,-0.23689456623530078,-0.30580909458394845,-1.1180604456637706
6.755515678,-0.27304587768029204,-0.24741726821667848,-1.1492449504210953
6.76027099,-0.30437701643542264,-0.17539266784798377,-1.1179545282969625
6.765026251,-0.32682866441956215,-0.0937900675017885,-1.026070786969895
6.769781563,-0.33677330997107013,-0.0071114941192050975,-0.8786897949986335
6.774536876,-0.3313279245884143,0.07995221624180784,-0.6838427674731018
6.779292188,-0.30861192465154896,0.16278565634557826,-0.45206739177018573
6.784047448,-0.2679274743244361,0.23710512883964835,-0.19584672375618437
6.788802761,-0.20984599982418958,0.29919224383148885,0.07105938961552341
6.793558073,-0.13619273875970758,0.34609007756076554,0.3343579513548571
6.798313334,-0.049929572745230334,0.37574865938308205,0.5800029784644997
6.803068646,0.04505505807714331,0.38710984217666294,0.7949694747408094
6.807823959,0.14423200906957526,0.380126520197374,0.9679768449862277
6.812579271,0.2427683467399709,0.3557171310070274,1.0901185867233378
6.817334532,0.3358847828716187,0.3156623452215774,1.1553591796943947
6.822089844,0.4192001093321439,0.26245552438531744,1.1608658926941708
6.826845157,0.4890300403327822,0.19912108016559307,1.107152480553614
6.831600417,0.5426131705257888,0.12901533781601093,0.998022993317569
6.83635573,0.5782459835659397,0.05562359071076252,0.8403164165462803
6.841111042,0.5953205512406461,-0.01763449647456476,0.6434657101226007
6.845866355,0.5942706015856418,-0.08758070880631218,0.41889724329281997
6.850621615,0.5764417290700219,-0.1514268471609293,0.17930805606943634
6.855376928,0.5439079678880107,-0.20688993744411038,-0.062131855330538506
6.86013224,0.4992591564668486,-0.2522708396466767,-0.2925979215320259
6.864887501,0.44538202712235403,-0.28649601972338956,-0.5003924652973534
6.869642813,0.3852539486461218,-0.3091247906302044,-0.6756332401151642
6.874398126,0.32176298111604074,-0.32032587965729853,-0.8108000481221573
6.879153386,0.2575623894088067,-0.3208276147525897,-0.901102679436507
6.883908698,0.19496281301743115,-0.3118457108232011,-0.9446495854055321
6.888664011,0.13586150274549122,-0.29499222305075035,-0.9424146139810857
6.893419271,0.08170561616182381,-0.2721692473708118,-0.89801625016848
6.898174584,0.033485242186491945,-0.24545150257434875,-0.8173377886775575
6.902929896,-0.00824893105241468,-0.21696271841548814,-0.708026109563164
6.907685209,-0.0433490100116705,-0.18875131244863064,-0.5789108018506444
6.912440469,-0.07202058325498317,-0.1626708623178094,-0.43938521962273785
6.917195782,-0.09476700335746843,-0.14027040577160185,-0.29878849204873775
6.921951094,-0.11233270244541337,-0.12269893892867599,-0.16582420147126312
6.926706355,-0.12564908740065603,-0.11062801659526049,-0.04804788236357941
6.931461667,-0.1357841303648263,-0.10419632795112535,0.04854910586711954
6.93621698,-0.14389461640898804,-0.1029804813218751,0.11983854944702214
6.94097224,-0.15117872818792907,-0.10599663276636002,0.16372558167733875
6.945727553,-0.15882633750203126,-0.11173752540819833,0.1801888093759378
6.950482865,-0.16796483040906374,-0.1182485210669241,0.17119822462753834
6.955238126,-0.1795993409464252,-0.12324406220281933,0.14052466034813155
6.959993438,-0.194547857684643,-0.1242627412940581,0.09345632903735734
6.964748751,-0.21337370626255714,-0.11885511703319745,0.03643660660042234
6.969504063,-0.2363201253113969,-0.10479412133568812,-0.023364871773895648
6.974259323,-0.26325363720214473,-0.08029383947495268,-0.07853568946368406
6.979014636,-0.2936242762174664,-0.04421899859071838,-0.12194249412696931
6.983769948,-0.3264511389059239,0.003734924536752155,-0.147267023486257
6.988525209,-0.36034083305460307,0.0629118044223149,-0.1495226492694877
6.993280521,-0.3935439467092372,0.13163416076182322,-0.12551046060428428
6.998035834,-0.4240506303853044,0.20722556477282592,-0.07417197959225186
7.002791094,-0.449721228501552,0.28612204775348765,0.003199520529813815
7.007546407,-0.4684424906360488,0.3640686910384052,0.10291622828245894
7.012301719,-0.47829534950774244,0.4363879671620115,0.21903403716908723
7.01705698,-0.47771757437831874,0.49829850251355157,0.3436685107002468
7.021812292,-0.46564438925833707,0.5452578341194773,0.467470335866415
7.026567605,-0.44161247682800675,0.5733009117169252,0.5802294486451062
7.031322865,-0.40581731316803854,0.5793473862737152,0.6715677584385612
7.036078178,-0.35911969726617843,0.561454484274083,0.7316749252070465
7.04083349,-0.3030034666901972,0.5189976622311875,0.7520398202460069
7.045588751,-0.23949147843932167,0.45276742658731717,0.7261315180865584
7.050344063,-0.17103016707225224,0.36497693251550645,0.649987004008353
7.055099376,-0.10035421735622732,0.25918072157653427,0.5226671946429169
7.059854688,-0.03034243286116984,0.14011000813318156,0.3465475693171783
7.064609948,0.03612572058646313,0.013434211588483414,0.12741473439302592
7.069365261,0.09630558423754795,-0.11453812223595161,-0.12565326007482858
7.074120573,0.14770968203081628,-0.23720330299946962,-0.40063532901248766
7.078875834,0.1882137581413067,-0.3480338443883513,-0.6831429287848322
7.083631146,0.21614455251650802,-0.4409581839948297,-0.9572033284931468
7.088386459,0.23034814927219607,-0.5107283224740192,-1.2062113668798835
7.093141719,0.23023802188479836,-0.5532534956576529,-1.4139918772663809
7.097897032,0.2158218497221278,-0.5658772278631369,-1.5659004714051852
7.102652292,0.1877059479733767,-0.5475760423057414,-1.649882296989163
7.107407605,0.14707592751870482,-0.4990615407431997,-1.6574077677866907
7.112162917,0.09565219615416967,-0.422773671047867,-1.5842107970966353
7.11691823,0.03561933576832212,-0.32276121116797185,-1.4307676144408745
7.12167349,-0.030470563252746552,-0.2044547076252873,-1.2024715906065384
7.126428803,-0.09981866456053655,-0.07434602409442255,-0.9094805755134538
7.131184115,-0.16951953139556833,0.0604038056942896,-0.5662369174464306
7.135939376,-0.23671259257272012,0.19240122139238347,-0.19068502541216897
7.140694688,-0.2987338542696484,0.3144709151003861,0.19676507204101745
7.145450001,-0.3532553001346738,0.42008975707973983,0.574459819457992
7.150205261,-0.39840023680313896,0.5037748956687613,0.9208277420124578
7.154960573,-0.43282578623481255,0.5614015362944328,1.21572006828028
7.159715886,-0.455767766825751,0.5904321486054709,1.4416786134547976
7.164471146,-0.4670470049097307,0.5900458186512791,1.5850495013898174
7.169226459,-0.46703876404475597,0.5611632673737846,1.636871523289387
7.173981771,-0.4566085071469878,0.5063692741225885,1.593481094175234
7.178737032,-0.43701847526622994,0.4297397408368492,1.4567919822123592
7.183492344,-0.4098113986953958,0.33658529084171657,1.2342277877751264
7.188247657,-0.37668000665684287,0.23312701068098238,0.938308324947791
7.193002917,-0.33933298967328096,0.1261227257337964,0.5859158443496493
7.19775823,-0.2993687056452793,0.022464120536516845,0.19729041327538074
7.202513542,-0.258166797386663,-0.07123389251393072,-0.20517743845122655
7.207268803,-0.2168053766239619,-0.14902982640632723,-0.5982767566422691
7.212024115,-0.17600839376438326,-0.20601688996769052,-0.9593445100484823
7.216779428,-0.1361250957710689,-0.23862842308916205,-1.267590307500425
7.221534688,-0.09714145985430546,-0.24486878217100863,-1.5053026704005927
7.226290001,-0.058722014845144534,-0.22445371710194745,-1.6588715641760738
7.231045313,-0.02027912531281997,-0.17884822984447582,-1.719572380434868
7.235800573,0.018934623954054167,-0.1111951387523548,-1.6840679539740484
7.240555886,0.05971686126415406,-0.026134119568919548,-1.554598410710819
7.245311146,0.10279627079882,0.07048127867438857,-1.3388446857544476
7.250066459,0.1487132462395515,0.17195276477685312,-1.0494706819072759
7.254821771,0.1977114871994948,0.27116871000105963,-0.703370277621996
7.259577032,0.24965263287414025,0.36106764361421895,-0.32066644263938276
7.264332344,0.3039651968384447,0.4351001853792176,0.07647266501314118
7.269087657,0.3596356741603933,0.4876558473595814,0.46512471543113365
7.273842917,0.4152439020881205,0.5144248884655649,0.822932519222022
7.27859823,0.469037901780419,0.5126721427225326,1.1293769688648971
7.283353542,0.5190375589953479,0.48140808279957575,1.3669370850801892
7.288108803,0.5631534240242371,0.4214507501302221,1.5220795729363383
7.292864115,0.5993072743275611,0.33537944549098364,1.5860284239359286
7.297619428,0.6255441258483724,0.2273868143248465,1.5552729913419576
7.302374688,0.6401295384801567,0.10304035321395663,1.4317825490846374
7.307130001,0.6416299496108251,-0.03103214983268307,1.22290852287559
7.311885313,0.6289767375843706,-0.1675157405089396,0.9409729586493492
7.316640573,0.6015166638158124,-0.29881984993624194,0.6025621710134538
7.321395886,0.5590521847376347,-0.4175060575916111,0.22756531514206127
