Time (s),Acceleration x (m/s^2),Acceleration y (m/s^2),Acceleration z (m/s^2)
10.00249859,7.714460373,-9.738788605,-0.05024927482
10.00725385,7.738388538,-9.477970123,-0.04067798331
10.01200911,7.838887215,-9.147761345,-0.1339980662
10.01676442,7.970492363,-8.712266922,-0.1962114573
10.02151969,8.068597794,-8.207381248,-0.1411765367
10.02627494,7.860422611,-7.604390144,0.03349951655
10.03103026,7.384250641,-7.05164814,0.3158525825
10.03578552,6.747759819,-6.601797581,0.4929214716
10.04054083,6.1399827,-6.259624004,0.4211367965
10.04529609,5.603990555,-5.960521221,0.2344966233
10.05005135,5.185246468,-5.709274769,0.1507478207
10.05480666,4.991427898,-5.491528034,0.1268195957
10.05956192,5.151747227,-5.242674351,-0.06221338734
10.06431718,5.615954876,-5.113461971,-0.4761717021
10.0690725,6.326622963,-5.070391178,-0.9571290612
10.07382776,7.027719975,-5.175675392,-1.191625714
10.07858302,7.38664341,-5.381458282,-1.21555388
10.08333833,7.326822758,-5.77148819,-1.287338614
10.08809359,7.013363361,-6.314659119,-1.433300734
10.09284885,6.589833736,-6.946363926,-1.366301775
10.09760416,6.178267956,-7.551748276,-1.076770186
10.10235942,5.838487148,-8.111668587,-0.6173482537
10.10711474,5.496313572,-8.532805443,-0.04785645381
10.11187,5.175675392,-8.84387207,0.4809573591
10.11662526,4.840680122,-9.025727272,0.8542376757
10.12138057,4.500899315,-9.152546883,0.9332008362
10.12613583,4.311866283,-9.2362957,0.8111668825
10.13089109,4.177868366,-9.320044518,0.7824530005
10.1356464,4.113262177,-9.430113792,0.9858429432
10.14040166,4.213760853,-9.547362328,1.35912323
10.14515692,4.393222332,-9.765109062,1.734796405
10.14991224,4.893322468,-10.00439167,1.859223247
10.1546675,5.666203976,-10.39442158,1.80658114
10.15942276,6.592226505,-10.93759251,1.651047587
10.16417807,7.566105366,-11.5142622,1.493121386
10.16893333,8.327022552,-12.09332561,1.344766378
10.17368859,8.606983185,-12.54796219,1.272981644
10.1784439,8.48973465,-12.96670628,1.122233868
10.18319916,8.10449028,-13.22991657,0.8255237937
10.18795448,7.623532772,-13.2275238,0.418743968
10.19270974,7.073183537,-13.05524063,-0.0239282269
10.197465,6.606583118,-12.80638695,-0.4498506486
10.20222026,6.345765591,-12.50728416,-0.7992027402
10.20697557,6.451049805,-12.16511059,-0.7393822074
10.21173083,7.01575613,-11.81097221,-0.2368894368
10.21648614,7.814958572,-11.47119141,0.500099957
10.2212414,8.434700012,-11.08833981,1.107876897
10.22599666,8.618947029,-10.64566803,1.428515077
10.23075198,8.391629219,-10.21017456,1.330409408
10.23550724,7.946564198,-9.824930191,1.021735311
10.2402625,7.575676441,-9.535398483,0.5766702294
10.24501781,7.25743103,-9.341579437,0.2225325108
10.24977307,7.030112743,-9.198010445,-0.0382851623
10.25452833,7.006184578,-9.09990406,-0.2009970993
10.25928364,7.104290485,-9.097511292,-0.4235295951
10.2640389,7.235895634,-9.133403778,-0.6819544435
10.26879416,7.372286797,-9.329615593,-1.024128079
10.27354948,7.496713161,-9.609575272,-1.536192179
10.27830474,7.554141045,-9.956535339,-2.041077614
10.28306,7.628318787,-10.38963604,-2.325823545
10.28781531,7.932207108,-10.89691448,-2.30189538
10.29257057,8.250452042,-11.34197903,-1.895115495
10.29732583,8.532805443,-11.6841526,-1.253839016
10.30208114,8.592626572,-11.81815147,-0.5048855543
10.3068364,8.417949677,-11.72004509,0.1651047617
10.31159166,8.085348129,-11.43051338,0.5670989752
10.31634698,7.719245911,-10.99980545,0.5910272002
10.32110224,7.283751965,-10.49252701,0.404387027
10.3258575,6.55394125,-9.978070259,0.2847459018
10.33061281,5.544169903,-9.432506561,0.404387027
10.33536807,4.414757729,-8.953942299,0.6604190469
10.34012333,3.409772158,-8.492127419,0.9978070259
10.34487864,2.510071039,-8.099704742,1.287338614
10.3496339,1.785045743,-7.767102242,1.533799291
10.35438916,1.172483087,-7.525427341,1.667797327
10.35914448,0.8231309652,-7.319644451,1.641476393
10.36389974,0.5934200287,-7.159325123,1.478764415
10.368655,0.471386075,-7.089933395,1.258624673
10.37341031,0.3996013701,-7.054041386,1.057627559
10.37816557,0.3876372576,-7.06600523,0.9571290612
10.38292083,0.5599204898,-7.104290485,1.033699393
10.38767614,0.8614161611,-7.25743103,1.205982566
10.3924314,1.313659668,-7.458428383,1.447657704
10.39718666,1.871187329,-7.661818027,1.696511269
10.40194192,2.443071842,-7.86281538,1.921436548
10.40669724,3.029313564,-8.068597794,2.06261301
10.4114525,3.59641242,-8.305487633,2.093719721
10.41620781,4.04147768,-8.568697929,2.017149448
10.42096307,4.453042984,-8.858229637,1.873580098
10.42571833,4.783252239,-9.150154114,1.739582062
10.43047359,5.182853699,-9.427721024,1.648654819
10.4352289,5.704489231,-9.671789169,1.619940877
10.43998416,6.384050846,-9.860821724,1.619940877
10.44473942,7.178467751,-10.03549862,1.655833244
10.44949474,8.159524918,-10.15753174,1.737189293
10.45425,9.276973724,-10.26760197,1.80658114
10.45900526,10.38963604,-10.4279213,1.830509305
10.46376057,11.42812061,-10.53799057,1.887937069
10.46851583,12.31346512,-10.59063339,1.835294962
10.47327109,12.83510113,-10.5978117,1.639083505
10.4780264,13.12463188,-10.43270683,1.258624673
10.48278166,13.1581316,-10.19103146,0.7800601721
10.48753692,12.99302673,-9.870393753,0.380458802
10.49229218,12.53121185,-9.475577354,0.2249253243
10.4970475,11.88275719,-9.013762474,0.4211367965
10.50180276,10.99501991,-8.532805443,1.028913736
10.50655802,10.11206818,-8.109275818,1.775474429
10.51131333,9.343972206,-7.733603001,2.421536446
10.51606859,8.685946465,-7.410571575,2.804388046
10.52082385,8.090133667,-7.111468792,2.868994236
10.52557916,7.52782011,-6.848258495,2.665604353
10.53033442,6.984649181,-6.630511761,2.232503414
10.53508968,6.412764549,-6.527620316,1.701296926
10.539845,5.931807518,-6.43908596,1.105484009
10.54460026,5.599205017,-6.446264267,0.5790630579
10.54935552,5.493920803,-6.479763508,0.1316052526
10.55411078,5.546562672,-6.597012043,-0.1363908947
10.55886609,5.659025669,-6.766902447,-0.1268195957
10.56362135,5.752345562,-7.022934437,0.03349951655
10.56837661,5.716453075,-7.329215527,0.1938186288
10.57313192,5.50109911,-7.652246952,0.2895315289
10.57788718,5.070391178,-7.972885132,0.337387979
10.58264245,4.527220249,-8.207381248,0.380458802
10.58739776,3.979264021,-8.343772888,0.3684946895
10.59215302,3.505485058,-8.374878883,0.2823530734
10.59690828,3.192025423,-8.327022552,0.08135596663
10.60166359,3.101098061,-8.240880966,-0.1028913707
10.60641885,3.333201885,-8.097311974,-0.2416750938
10.61117411,3.658625841,-7.872386456,-0.3038884699
10.61592937,4.036691666,-7.680960655,-0.3684946895
10.62068468,4.436293125,-7.511070251,-0.4666004181
10.62543994,4.898108006,-7.348358154,-0.6245267391
10.63019521,5.43649292,-7.159325123,-0.837487936
10.63495052,6.034698486,-6.996613503,-1.071984529
10.63970578,6.606583118,-6.836294174,-1.347159147
10.64446104,7.183253765,-6.644868374,-1.617548108
10.6492163,7.613961697,-6.498906136,-1.761117458
10.65397161,7.922635555,-6.374479294,-1.837687731
10.65872687,8.097311974,-6.273981094,-1.880758643
10.66348213,8.219346046,-6.209374905,-1.976471543
10.66823744,8.303094864,-6.228517532,-2.105684042
10.67299271,8.327022552,-6.271588326,-2.230110645
10.67774797,8.252845764,-6.254838467,-2.340180635
10.68250323,8.061419487,-6.221338749,-2.328216314
10.68725854,7.8341012,-6.166304111,-2.163111687
10.6920138,7.532605648,-6.094519138,-1.892722726
10.69676906,7.147361279,-6.051448345,-1.543370605
10.70152432,6.728617191,-6.001199245,-1.289731383
10.70627963,6.506084919,-6.001199245,-1.251446247
10.71103489,6.333801746,-5.955735683,-1.292124271
10.71579015,6.221338749,-5.907878876,-1.332802176
10.72054541,6.259624004,-5.860022545,-1.373480201
10.72530073,6.417550564,-5.826523304,-1.411765337
10.73005599,6.63290453,-5.761917114,-1.380658627
10.73481125,6.786045074,-5.723631859,-1.15094769
10.73956656,6.857829571,-5.714060307,-0.8087740541
10.74432182,6.946363926,-5.663811207,-0.3565305769
10.74907708,7.013363361,-5.536991596,0.4498506486
10.75383234,6.891329288,-5.362315655,1.428515077
10.75858765,6.482156754,-5.125426292,2.158325911
10.76334291,5.800201893,-4.855037212,2.096112728
10.76809817,5.015356064,-4.61814785,1.445264935
10.77285349,4.304687977,-4.345366001,1.232303619
10.77760875,3.797409534,-4.139583111,1.859223247
10.78236401,3.833301783,-4.019941807,2.74935317
10.78711927,4.165904045,-4.02712059,3.445664644
10.79187458,4.405186653,-3.938585997,3.601198196
10.79662984,4.567898273,-3.711267948,3.40498662
10.8013851,4.862215519,-3.419343472,2.830709219
10.80614041,5.094319344,-3.060420275,1.835294962
10.81089567,5.345565796,-2.663211584,1.091127157
10.81565094,5.996413708,-2.356930256,0.6843472719
10.8204062,6.817151546,-2.349751949,0.6652047038
10.82516151,7.41535759,-2.340180635,0.5814558864
10.82991677,7.829315662,-2.608176708,0.390030086
10.83467203,7.92742157,-3.103491068,0.1746760458
10.83942729,7.6426754,-3.684946775,-0.1196411327
10.8441826,7.00139904,-4.180261135,-0.2177468538
10.84893786,6.137589931,-4.515256405,-0.2081755698
10.85369312,5.491528034,-4.673182487,-0.1627119333
10.85844838,4.986642361,-4.725824833,-0.1459621787
10.8632037,4.613361835,-4.579862595,-0.02632104978
10.86795896,4.555934429,-4.615755081,-0.7369893789
10.87271422,4.811966419,-4.465006828,-1.131805062
10.87746948,5.271388054,-4.335794449,-1.373480201
10.88222479,5.603990555,-4.220939159,-1.576870084
10.88698005,5.632704735,-4.070191383,-1.878365755
10.89173531,5.484349728,-3.9170506,-2.112862349
10.89649057,5.252245903,-3.735196114,-2.031506538
10.90124588,5.187639713,-3.761517286,-2.569891453
10.90600114,4.934000492,-3.754338741,-2.581855536
10.9107564,4.754538536,-3.857230186,-2.438286304
10.91551166,4.594219685,-4.031906128,-2.239681959
10.92026698,4.486542225,-4.208974838,-1.907079697
10.92502224,4.476971149,-4.350151539,-1.619940877
10.9297775,4.467400074,-4.465006828,-1.469193101
10.93453276,4.486542225,-4.546362877,-1.567298889
10.93928807,4.517649174,-4.594219685,-1.696511269
10.94404333,4.606183529,-4.61814785,-1.768295884
10.94879859,4.656432629,-4.639683247,-1.794616938
10.95355385,4.649254322,-4.666004181,-1.892722726
10.95830916,4.534399033,-4.728217602,-1.849651933
10.96306442,4.311866283,-4.804787636,-1.718046665
10.96781968,4.065405846,-4.900500774,-1.51944232
10.97257494,3.847658873,-5.046463013,-1.356730461
10.97733026,3.799802303,-5.20917511,-1.313659668
10.98208552,3.984049797,-5.405386448,-1.574477315
10.98684078,4.409972191,-5.659025669,-1.993221283
10.99159604,5.070391178,-5.941378593,-2.364108801
10.99635135,5.919843197,-6.221338749,-2.651247501
11.00110661,6.872186661,-6.534798622,-2.76371026
11.00586187,7.712067604,-6.872186661,-2.825923443
11.01061713,8.401200294,-7.252645493,-2.971885681
11.01537239,8.920442581,-7.5924263,-2.847458839
11.02012771,9.243474007,-7.92742157,-2.689532757
11.02488297,9.403793335,-8.283951759,-2.548356056
11.02963823,9.339186668,-8.642875671,-2.455035925
11.03439349,9.12861824,-8.930013657,-2.175075769
11.0391488,8.798408508,-9.154939651,-1.641476393
11.04390406,8.365307808,-9.303294182,-1.0863415
11.04865932,7.932207108,-9.370293617,-0.6604190469
11.05341458,7.427321434,-9.367900848,-0.3756731451
11.05816989,6.963113785,-9.200403214,-0.1100698411
11.06292515,6.563512325,-8.846264839,0.1435693651
11.06768041,6.23330307,-8.355736732,0.3780659735
11.07243567,6.104090691,-7.690532207,0.5048855543
11.07719099,6.108876228,-6.958328247,0.3828516304
11.08194625,6.250052929,-6.214160442,0.1148554832
11.08670151,6.50369215,-5.458028316,0.02632104978
11.09145677,6.927221775,-4.838287354,0.04785645381
11.09621203,7.432106972,-4.335794449,-0.03110669367
11.10096734,8.085348129,-3.950550079,-0.1172483116
11.1057226,8.69551754,-3.675375462,-0.2129612118
11.11047786,9.200403214,-3.512663603,-0.457029134
11.11523312,9.633503914,-3.479164124,-0.7704889178
11.11998838,10.00917721,-3.56530571,-0.9882357717
11.1247437,10.24845982,-3.797409534,-0.8757730722
11.12949896,10.26760197,-4.17069006,-0.7154539824
11.13425422,10.18624592,-4.651647091,-0.6532405615
11.13900948,9.884750366,-5.175675392,-0.5383850932
11.14376479,9.477970123,-5.749952793,-0.2392822653
11.14852005,8.965906143,-6.276373863,0.1148554832
11.15327531,8.415556908,-6.757331371,0.2656033039
11.15803057,7.831708431,-7.214360237,0.1555334777
11.16278583,7.300501823,-7.65703249,-0.02153540403
11.16754114,6.87457943,-8.030312538,-0.1292124242
11.1722964,6.463014126,-8.341380119,-0.1962114573
11.17705166,6.061019897,-8.525627136,-0.1411765367
11.18180692,5.759523869,-8.611768723,-0.03349951655
11.18656219,5.510670662,-8.592626572,0.05982056633
11.1913175,5.376672268,-8.508877754,0.2033899277
11.19607276,5.278566837,-8.315058708,0.2775674164
11.20082802,5.2737813,-8.00638485,0.1962114573
11.20558328,5.369493961,-7.637889862,-0.1076770201
11.21033854,5.477170944,-7.226324558,-0.5934200287
11.21509385,5.575276852,-6.776473522,-0.9858429432
11.21984911,5.711667538,-6.338587284,-1.1820544
11.22460437,5.903093338,-5.970092297,-1.129412293
11.22935963,6.101697922,-5.659025669,-1.040877819
11.23411494,6.300302029,-5.505885124,-0.9619147182
11.23887021,6.443871498,-5.446064472,-0.8590233326
11.24362547,6.573083878,-5.486742496,-0.6699903607
11.24838073,6.637690067,-5.647061348,-0.4929214716
11.25313599,6.565905571,-5.938985825,-0.4019941986
11.25789125,6.333801746,-6.300302029,-0.4211367965
11.26264656,5.910272121,-6.716653347,-0.6484549642
11.26740182,5.398207664,-7.200003147,-1.052842021
11.27215708,4.955535889,-7.762316704,-1.514656782
11.27691234,4.725824833,-8.444271088,-1.801795483
11.2816676,5.11585474,-9.324830055,-1.624726534
11.28642291,6.300302029,-10.32502937,-0.7633104324
11.29117817,8.037490845,-11.42572784,0.6532405615
11.29593344,9.927821159,-12.62931824,2.27078867
11.3006887,11.2008028,-13.92144203,3.536591768
11.30544396,11.87557888,-15.33799362,3.809373617
11.31019927,12.21057415,-16.8167572,3.304488182
11.31495453,12.16271782,-18.15434456,2.684746981
11.31970979,11.71047401,-19.30529404,2.249253273
11.32446505,11.04766178,-20.1164608,2.184647083
11.32922031,10.05942631,-20.51127625,2.478964329
11.33397557,8.941978455,-20.07338905,2.900100946
11.33873088,7.688138962,-18.32423592,3.086741209
11.34348614,6.857829571,-15.97687721,2.830709219
11.3482414,6.484549522,-13.61755371,2.103291035
11.35299666,6.434299946,-11.48554897,1.088734269
11.35775192,6.281159401,-9.650253296,0.01914258115
11.36250724,6.183053493,-8.126026154,-0.8829515576
11.3672625,6.068198204,-6.869793892,-1.600798368
11.37201776,5.840879917,-5.900700569,-2.129612207
11.37677302,5.62791872,-5.237888813,-2.325823545
11.38152828,5.611168861,-4.852644444,-2.194218397
11.38628354,5.716453075,-4.778466702,-1.820937991
11.39103885,5.869594097,-4.979464054,-1.397408366
11.39579411,6.025127411,-5.453242779,-1.024128079
11.40054937,6.223731518,-6.101697922,-0.679561615
11.40530463,6.400800705,-6.862615108,-0.3828516304
11.41005989,6.644868374,-7.654639721,-0.2584248483
11.41481521,6.857829571,-8.501698494,-0.3110669553
11.41957047,6.991827965,-9.298508644,-0.3684946895
11.42432573,7.123433113,-10.07378292,-0.342173636
11.42908099,7.099504948,-10.73420238,-0.1866401732
11.43383625,6.884150982,-11.27737331,-0.009571290575
11.43859151,6.50369215,-11.6961174,0.1292124242
11.44334682,5.903093338,-11.94018459,0.2536391914
11.44810208,5.070391178,-11.97129154,0.3326023519
11.45285734,4.187439442,-11.77029419,0.3708875179
11.4576126,3.474378586,-11.40658569,0.35174492
11.46236786,2.916850805,-10.95912743,0.3326023519
11.46712312,2.488535643,-10.43749237,0.3469592929
11.47187844,2.160718918,-9.949356079,0.5288137794
11.4766337,1.947757602,-9.451649666,0.8398807645
11.48138896,1.847259045,-8.965906143,1.162911773
11.48614422,1.825723648,-8.496912956,1.459621787
11.49089948,1.85443759,-8.109275818,1.677368641
11.49565474,1.890329838,-7.771887779,1.773081541
11.50041,1.825723648,-7.518248558,1.816152334
11.50516531,1.643869162,-7.290930748,1.816152334
11.50992057,1.354337573,-7.178467751,1.725225091
11.51467583,1.028913736,-7.099504948,1.548156261
11.51943109,0.6891329288,-7.099504948,1.232303619
11.52418635,0.3158525825,-7.149754047,0.8159525394
11.52894161,0.0765703246,-7.262216568,0.3493520916
11.53369687,0.1196411327,-7.470392227,0.01674975827
11.53845218,0.5910272002,-7.793423176,-0.04785645381
11.54320744,1.404586911,-8.269595146,0.1603191197
11.54796271,2.409572363,-8.800801277,0.5335994363
11.55271797,3.498306751,-9.363115311,0.8925228715
11.55747323,4.575077057,-9.882357597,1.220339537
11.56222849,5.551348686,-10.40638542,1.433300734
11.5669838,6.625725746,-10.92562866,1.483550072
11.57173906,7.838887215,-11.50947666,1.385444283
11.57649432,9.20758152,-12.09571838,1.11984098
11.58124958,10.7605238,-12.75613785,0.6915257573
11.58600484,12.26321602,-13.34237862,0.3493520916
11.5907601,13.58644676,-13.68215942,0.2392822653
11.59551536,14.3689003,-13.71565914,0.5072783828
11.60027062,14.71585941,-13.4285202,1.067198873
11.60502594,14.43350601,-12.91167068,1.703689694
11.6097812,13.81615829,-12.25603771,2.242074728
11.61453646,13.2083807,-11.44726372,2.452643156
11.61929172,12.59581852,-10.49970531,2.273181438
11.62404698,11.83490086,-9.561718941,1.801795483
11.62880224,10.95434189,-8.707481384,1.222732425
11.6335575,10.10728264,-7.951349735,0.7130611539
11.63831276,9.238688469,-7.250252724,0.2871387303
11.64306807,8.36052227,-6.652047157,-0.08853443712
11.64782333,7.460821152,-6.113661766,-0.366101861
11.65257859,6.642475605,-5.651846886,-0.5527420044
11.65733385,5.979663849,-5.235496044,-0.6843472719
11.66208911,5.525027275,-4.895715237,-0.7154539824
11.66684437,5.414957523,-4.651647091,-0.6388836503
11.67159963,5.517848969,-4.503292084,-0.4785645306
11.67635489,5.761917114,-4.457828522,-0.2488535494
11.68111021,6.063412666,-4.515256405,0.04307080805
11.68586547,6.281159401,-4.66839695,0.3589234054
11.69062073,6.34815836,-4.955535889,0.6580262184
11.69537599,6.23330307,-5.30728054,1.004985452
11.70013125,6.029912949,-5.730810165,1.354337573
11.70488651,5.781059742,-6.21894598,1.651047587
11.70964177,5.553741455,-6.671189308,1.818545222
11.71439703,5.364708424,-7.104290485,1.835294962
11.71915234,5.29292345,-7.508677483,1.655833244
11.7239076,5.331208706,-7.807780266,1.296909928
11.72866286,5.477170944,-8.0757761,0.7657032609
11.73341812,5.663811207,-8.231309891,0.2775674164
11.73817338,5.862415314,-8.329415321,-0.1603191197
11.74292864,6.063412666,-8.341380119,-0.5072783828
11.7476839,6.192625046,-8.279166222,-0.7872386575
11.75243916,6.314659119,-8.140382767,-1.057627559
11.75719448,6.491727829,-7.910671711,-1.385444283
11.76194974,6.630511761,-7.645068169,-1.713261008
11.766705,6.788437843,-7.314858913,-1.966900229
11.77146026,6.900900364,-6.929614544,-2.074577332
11.77621552,7.008577347,-6.48933506,-2.007578135
11.78097078,7.046862602,-6.125626087,-1.945364833
11.78572604,6.984649181,-5.7571311,-1.799402595
11.7904813,6.915257454,-5.496313572,-1.720439434
11.79523656,6.800402164,-5.288137913,-1.744367719
11.79999182,6.647261143,-5.099104881,-1.835294962
11.80474713,6.403193474,-4.967499733,-1.914258122
11.80950239,6.118447304,-4.850251675,-1.892722726
11.81425765,5.855237007,-4.725824833,-1.727617979
11.81901291,5.661418438,-4.658825874,-1.490728498
11.82376817,5.548955917,-4.615755081,-1.196411371
11.82852344,5.412564754,-4.658825874,-0.9978070259
11.8332787,5.285745144,-4.646861553,-0.8877372146
11.83803396,5.347958565,-4.606183529,-0.7776673436
11.84278922,5.479563713,-4.560719967,-0.6604190469
11.84754448,5.802595139,-4.469792843,-0.5288137794
11.85229979,6.24766016,-4.429114819,-0.4139583111
11.85705505,6.613761902,-4.383651257,-0.3038884699
11.86181031,6.764509678,-4.409972191,-0.1196411327
11.86656557,6.762116909,-4.417150497,0.1555334777
11.87132083,6.697510719,-4.405186653,0.7298108935
11.87607609,6.518048763,-4.340580463,1.665404558
11.88083135,6.216553211,-4.220939159,2.768495798
11.88558661,5.737988472,-4.005585194,3.677768469
11.89034187,5.13021183,-3.687339783,4.024727821
11.89509713,4.587040901,-3.34038043,3.816552162
11.89985239,4.244867325,-3.031706333,3.503092289
11.90460765,4.352544308,-2.852244616,3.378665686
