"Time (s)","Magnetic field x (µT)","Magnetic field y (µT)","Magnetic field z (µT)"
3.199106200E-2,3.635625076E1,-1.175625038E1,-3.133125114E1
4.199106200E-2,3.645000076E1,-1.132500076E1,-3.163125038E1
5.199106200E-2,3.648750305E1,-1.126875019E1,-3.225000000E1
6.199106200E-2,3.652500153E1,-1.128750038E1,-3.213750076E1
7.199106200E-2,3.650625229E1,-1.123125076E1,-3.211875153E1
8.199106200E-2,3.650625229E1,-1.123125076E1,-3.226875305E1
9.199106200E-2,3.671250153E1,-1.132500076E1,-3.215625000E1
1.019910620E-1,3.669375229E1,-1.121250057E1,-3.217500305E1
1.119910620E-1,3.671250153E1,-1.102500057E1,-3.240000153E1
1.219910620E-1,3.669375229E1,-1.095000076E1,-3.255000305E1
1.319910620E-1,3.669375229E1,-1.091250038E1,-3.245625305E1
1.419910620E-1,3.652500153E1,-1.091250038E1,-3.271875000E1
1.519910620E-1,3.639375305E1,-1.104375076E1,-3.301875305E1
1.619910620E-1,3.607500076E1,-1.093125057E1,-3.324375153E1
1.719910620E-1,3.566250229E1,-1.081875038E1,-3.343125153E1
1.819910620E-1,3.525000000E1,-1.061250019E1,-3.380625153E1
1.919910620E-1,3.466875076E1,-1.033125019E1,-3.414375305E1
2.019910620E-1,3.395625305E1,-9.937500000E0,-3.468750000E1
2.119910620E-1,3.330000305E1,-9.281250000E0,-3.534375000E1
2.219910620E-1,3.270000076E1,-8.831250191E0,-3.575625229E1
2.319910620E-1,3.176250076E1,-8.062500000E0,-3.669375229E1
2.419910620E-1,3.097500038E1,-7.612500191E0,-3.736875153E1
2.519910620E-1,2.996250153E1,-6.975000381E0,-3.866250229E1
2.619910620E-1,2.915625191E1,-6.693750381E0,-3.909375000E1
2.719910620E-1,2.833125114E1,-6.693750381E0,-3.969375229E1
2.819910620E-1,2.754375076E1,-6.581250191E0,-4.008750153E1
2.919910620E-1,2.700000191E1,-6.975000381E0,-4.046250153E1
3.019910620E-1,2.638125038E1,-7.031250477E0,-4.091250229E1
3.119910620E-1,2.623125076E1,-7.218750477E0,-4.076250076E1
3.219910620E-1,2.568750191E1,-7.593750477E0,-4.091250229E1
3.319910620E-1,2.529375076E1,-7.987500191E0,-4.078125000E1
3.419910620E-1,2.469375038E1,-8.381250381E0,-4.143750000E1
3.519910620E-1,2.403750038E1,-8.606250763E0,-4.177500153E1
3.619910620E-1,2.343750000E1,-9.318750381E0,-4.216875076E1
3.719910620E-1,2.233125114E1,-9.881250381E0,-4.246875000E1
3.819910620E-1,2.130000114E1,-1.063125038E1,-4.260000229E1
3.919910620E-1,1.980000114E1,-1.171875000E1,-4.303125000E1
4.019910620E-1,1.869375038E1,-1.250625038E1,-4.312500000E1
4.119910620E-1,1.747500038E1,-1.348125076E1,-4.321875000E1
4.219910620E-1,1.646250153E1,-1.455000019E1,-4.299375153E1
4.319910620E-1,1.524375057E1,-1.580625057E1,-4.299375153E1
4.419910620E-1,1.391250038E1,-1.681875038E1,-4.293750000E1
4.519910620E-1,1.256250095E1,-1.777500153E1,-4.312500000E1
4.619910620E-1,1.149375057E1,-1.878750038E1,-4.336875153E1
4.719910620E-1,1.057500076E1,-1.948125076E1,-4.331250000E1
4.819910620E-1,9.187500000E0,-2.036250114E1,-4.327500153E1
4.919910620E-1,7.443750381E0,-2.131875038E1,-4.329375076E1
5.019910620E-1,5.681250095E0,-2.216250038E1,-4.329375076E1
5.119910620E-1,3.825000048E0,-2.276250076E1,-4.297500229E1
5.219910620E-1,2.156250000E0,-2.383125114E1,-4.260000229E1
5.319910620E-1,3.562500179E-1,-2.476875114E1,-4.183125305E1
5.419910620E-1,-1.893750072E0,-2.578125191E1,-4.108125305E1
5.519910620E-1,-4.406250000E0,-2.679375076E1,-3.997500229E1
5.619910620E-1,-6.918750286E0,-2.780625153E1,-3.896250153E1
5.719910620E-1,-9.356250763E0,-2.866875076E1,-3.750000000E1
5.819910620E-1,-1.213125038E1,-2.966250038E1,-3.615000153E1
5.919910620E-1,-1.451250076E1,-3.075000191E1,-3.431250000E1
6.019910620E-1,-1.721250153E1,-3.110625076E1,-3.249375153E1
6.119910620E-1,-1.985625076E1,-3.153750038E1,-3.071250153E1
6.219910620E-1,-2.253750038E1,-3.133125114E1,-2.891250038E1
6.319910620E-1,-2.463750076E1,-3.121875191E1,-2.741250038E1
6.419910620E-1,-2.658750153E1,-3.078750038E1,-2.606250191E1
6.519910620E-1,-2.859375191E1,-3.007500076E1,-2.480625153E1
6.619910620E-1,-3.018750191E1,-2.921250153E1,-2.340000153E1
6.719910620E-1,-3.189375114E1,-2.814375114E1,-2.268750000E1
6.819910620E-1,-3.330000305E1,-2.731875038E1,-2.203125000E1
6.919910620E-1,-3.466875076E1,-2.625000191E1,-2.111250114E1
7.019910620E-1,-3.571875000E1,-2.557500076E1,-2.028750038E1
7.119910620E-1,-3.686250305E1,-2.482500076E1,-1.951875114E1
7.219910620E-1,-3.785625076E1,-2.392500114E1,-1.833750153E1
7.319910620E-1,-3.894375229E1,-2.325000000E1,-1.747500038E1
7.419910620E-1,-4.003125000E1,-2.251875114E1,-1.640625000E1
7.519910620E-1,-4.070625305E1,-2.182500076E1,-1.520625019E1
7.619910620E-1,-4.156875229E1,-2.111250114E1,-1.374375057E1
7.719910620E-1,-4.222500229E1,-2.070000076E1,-1.256250095E1
7.819910620E-1,-4.308750153E1,-2.017500114E1,-1.113750076E1
7.919910620E-1,-4.391250229E1,-1.961250114E1,-9.562500000E0
8.019910620E-1,-4.475625229E1,-1.914375114E1,-8.550000191E0
8.119910620E-1,-4.488750076E1,-1.886250114E1,-7.331250191E0
8.219910620E-1,-4.522500229E1,-1.824375153E1,-6.356250286E0
8.319910620E-1,-4.565625000E1,-1.786875153E1,-5.775000095E0
8.419910620E-1,-4.582500076E1,-1.749375153E1,-5.156250000E0
8.519910620E-1,-4.629375076E1,-1.713750076E1,-5.025000095E0
8.619910620E-1,-4.635000229E1,-1.670625114E1,-4.950000286E0
8.719910620E-1,-4.650000000E1,-1.642500114E1,-5.118750095E0
8.819910620E-1,-4.620000076E1,-1.610625076E1,-5.250000000E0
8.919910620E-1,-4.648125076E1,-1.582500076E1,-5.775000095E0
9.019910620E-1,-4.655625153E1,-1.569375038E1,-6.468750477E0
9.119910620E-1,-4.638750076E1,-1.520625019E1,-6.825000286E0
9.219910620E-1,-4.627500153E1,-1.505625057E1,-7.537500381E0
9.319910620E-1,-4.578750229E1,-1.477500057E1,-8.306250572E0
9.419910620E-1,-4.552500153E1,-1.475625038E1,-9.075000763E0
9.519910620E-1,-4.528125000E1,-1.460625076E1,-9.843750000E0
9.619910620E-1,-4.522500229E1,-1.470000076E1,-1.061250019E1
9.719910620E-1,-4.460625076E1,-1.464375019E1,-1.076250076E1
9.819910620E-1,-4.400625229E1,-1.496250057E1,-1.098750019E1
9.919910620E-1,-4.396875000E1,-1.567500019E1,-1.110000038E1
1.001991062E0,-4.376250076E1,-1.586250019E1,-1.121250057E1
1.011991062E0,-4.340625000E1,-1.651875114E1,-1.063125038E1
1.021991062E0,-4.310625076E1,-1.713750076E1,-1.005000019E1
1.031991062E0,-4.267500305E1,-1.805625153E1,-9.318750381E0
1.041991062E0,-4.231875229E1,-1.908750153E1,-8.268750191E0
1.051991062E0,-4.188750076E1,-2.010000038E1,-7.743750095E0
1.061991062E0,-4.156875229E1,-2.098125076E1,-6.900000095E0
1.071991062E0,-4.096875000E1,-2.193750000E1,-6.187500477E0
1.081991062E0,-4.050000000E1,-2.310000038E1,-5.081250191E0
1.091991062E0,-4.008750153E1,-2.373750114E1,-4.518750191E0
1.101991062E0,-3.937500000E1,-2.450625038E1,-3.993750095E0
1.111991062E0,-3.905625153E1,-2.533125114E1,-3.281250238E0
1.121991062E0,-3.825000000E1,-2.595000076E1,-2.756250143E0
1.131991062E0,-3.768750000E1,-2.679375076E1,-1.987500072E0
1.141991062E0,-3.693750000E1,-2.756250191E1,-1.200000048E0
1.151991062E0,-3.620625305E1,-2.801250076E1,-2.250000089E-1
1.161991062E0,-3.536250305E1,-2.863125038E1,3.000000119E-1
1.171991062E0,-3.465000153E1,-2.915625191E1,1.237500072E0
1.181991062E0,-3.418125153E1,-2.977500153E1,2.043750048E0
1.191991062E0,-3.301875305E1,-3.037500191E1,2.718750000E0
1.201991062E0,-3.238125229E1,-3.080625153E1,3.618750095E0
1.211991062E0,-3.189375114E1,-3.118125153E1,4.537500381E0
1.221991062E0,-3.133125114E1,-3.166875076E1,5.100000381E0
1.231991062E0,-3.080625153E1,-3.219375229E1,5.512500286E0
1.241991062E0,-3.050625038E1,-3.226875305E1,6.356250286E0
1.251991062E0,-3.016875076E1,-3.270000076E1,6.937500477E0
1.261991062E0,-3.003750038E1,-3.264375305E1,7.612500191E0
1.271991062E0,-3.035625076E1,-3.238125229E1,8.043750763E0
1.281991062E0,-3.060000038E1,-3.251250076E1,8.250000000E0
1.291991062E0,-3.069375038E1,-3.219375229E1,8.587500572E0
1.301991062E0,-3.106875038E1,-3.202500153E1,8.962500572E0
1.311991062E0,-3.099375153E1,-3.150000191E1,9.450000763E0
1.321991062E0,-3.116250038E1,-3.153750038E1,9.825000763E0
1.331991062E0,-3.131250191E1,-3.135000038E1,9.900000572E0
1.341991062E0,-3.129375076E1,-3.142500114E1,9.787500381E0
1.351991062E0,-3.127500153E1,-3.131250191E1,9.806250572E0
1.361991062E0,-3.129375076E1,-3.114375114E1,9.881250381E0
1.371991062E0,-3.129375076E1,-3.118125153E1,9.881250381E0
1.381991062E0,-3.129375076E1,-3.095625114E1,9.750000000E0
1.391991062E0,-3.163125038E1,-3.103125191E1,9.506250381E0
1.401991062E0,-3.195000076E1,-3.069375038E1,8.887500763E0
1.411991062E0,-3.223125076E1,-3.060000038E1,8.643750191E0
1.421991062E0,-3.217500305E1,-3.028125191E1,8.493750572E0
1.431991062E0,-3.211875153E1,-3.024375153E1,8.156250000E0
1.441991062E0,-3.217500305E1,-3.013125038E1,7.781250477E0
1.451991062E0,-3.213750076E1,-2.979375076E1,7.275000095E0
1.461991062E0,-3.225000000E1,-2.990625191E1,7.162500381E0
1.471991062E0,-3.221250153E1,-2.975625038E1,6.956250191E0
1.481991062E0,-3.183750153E1,-2.973750114E1,6.881250381E0
1.491991062E0,-3.161250114E1,-2.951250076E1,6.825000286E0
1.501991062E0,-3.136875153E1,-2.945625114E1,6.825000286E0
1.511991062E0,-3.129375076E1,-2.940000153E1,6.918750286E0
1.521991062E0,-3.103125191E1,-2.934375191E1,6.825000286E0
1.531991062E0,-3.086250114E1,-2.932500076E1,6.487500191E0
1.541991062E0,-3.063750076E1,-2.902500153E1,6.300000191E0
1.551991062E0,-3.046875191E1,-2.904375076E1,6.018750191E0
1.561991062E0,-3.048750114E1,-2.893125153E1,6.018750191E0
1.571991062E0,-3.037500191E1,-2.891250038E1,5.756250381E0
1.581991062E0,-3.058125114E1,-2.880000114E1,5.606250286E0
1.591991062E0,-3.041250038E1,-2.868750191E1,5.287500381E0
1.601991062E0,-3.033750153E1,-2.857500076E1,5.268750191E0
1.611991062E0,-3.033750153E1,-2.872500038E1,5.325000286E0
1.621991062E0,-3.003750038E1,-2.865000153E1,4.912500381E0
1.631991062E0,-3.035625076E1,-2.878125191E1,4.781250000E0
1.641991062E0,-3.039375114E1,-2.878125191E1,4.443750381E0
1.651991062E0,-3.060000038E1,-2.872500038E1,4.275000095E0
1.661991062E0,-3.078750038E1,-2.857500076E1,3.731250048E0
1.671991062E0,-3.121875191E1,-2.833125114E1,3.487500191E0
1.681991062E0,-3.153750038E1,-2.808750153E1,2.943750143E0
1.691991062E0,-3.189375114E1,-2.741250038E1,2.587500095E0
1.701991062E0,-3.277500153E1,-2.688750076E1,2.512500048E0
1.711991062E0,-3.309375000E1,-2.581875038E1,2.193750143E0
1.721991062E0,-3.356250000E1,-2.491875076E1,1.912500024E0
1.731991062E0,-3.420000076E1,-2.405625153E1,1.443750024E0
1.741991062E0,-3.481875229E1,-2.285625076E1,1.368750095E0
1.751991062E0,-3.571875000E1,-2.148750114E1,1.087500095E0
1.761991062E0,-3.669375229E1,-1.978125000E1,9.000000358E-1
1.771991062E0,-3.748125076E1,-1.790625000E1,6.187500358E-1
1.781991062E0,-3.789375305E1,-1.610625076E1,2.250000089E-1
1.791991062E0,-3.860625076E1,-1.430625057E1,-3.187500238E-1
1.801991062E0,-3.946875000E1,-1.166250038E1,-8.062500358E-1
1.811991062E0,-4.023750305E1,-8.662500381E0,-1.368750095E0
1.821991062E0,-4.098750305E1,-5.568750381E0,-2.118750095E0
1.831991062E0,-4.136250305E1,-2.175000191E0,-3.018750191E0
1.841991062E0,-4.155000305E1,1.293750048E0,-3.712500095E0
1.851991062E0,-4.153125000E1,4.668750286E0,-4.162500381E0
1.861991062E0,-4.138125229E1,8.437500000E0,-4.818750381E0
1.871991062E0,-4.102500153E1,1.209375095E1,-5.737500191E0
1.881991062E0,-4.057500076E1,1.503750038E1,-6.637500286E0
1.891991062E0,-3.976875305E1,1.792500114E1,-7.481250286E0
1.901991062E0,-3.885000229E1,2.019375038E1,-8.343750000E0
1.911991062E0,-3.808125305E1,2.225625038E1,-9.018750191E0
1.921991062E0,-3.727500153E1,2.400000000E1,-9.918750763E0
1.931991062E0,-3.654375076E1,2.510625076E1,-1.096875000E1
1.941991062E0,-3.616875076E1,2.589375114E1,-1.196250057E1
1.951991062E0,-3.579375076E1,2.668125153E1,-1.228125095E1
1.961991062E0,-3.545625305E1,2.705625153E1,-1.271250057E1
1.971991062E0,-3.526875305E1,2.724375153E1,-1.305000019E1
1.981991062E0,-3.547500229E1,2.746875191E1,-1.320000076E1
1.991991062E0,-3.541875076E1,2.746875191E1,-1.299375057E1
2.001991062E0,-3.577500153E1,2.726250076E1,-1.256250095E1
2.011991062E0,-3.635625076E1,2.720625114E1,-1.177500057E1
2.021991062E0,-3.697500229E1,2.685000038E1,-1.076250076E1
2.031991062E0,-3.740625000E1,2.615625191E1,-9.675000191E0
2.041991062E0,-3.776250076E1,2.574375153E1,-8.512500763E0
2.051991062E0,-3.836250305E1,2.510625076E1,-7.387500286E0
2.061991062E0,-3.879375076E1,2.467500114E1,-6.168750286E0
2.071991062E0,-3.958125305E1,2.396250153E1,-5.437500000E0
2.081991062E0,-3.991875076E1,2.340000153E1,-4.631250381E0
2.091991062E0,-3.969375229E1,2.364375114E1,-1.987500072E0
2.101991062E0,-4.014375305E1,2.355000114E1,-1.406250000E0
2.111991062E0,-4.061250305E1,2.349375153E1,-1.068750024E0
2.121991062E0,-4.102500153E1,2.353125000E1,-6.187500358E-1
2.131991062E0,-4.126875305E1,2.370000076E1,-2.812500000E-1
2.141991062E0,-4.136250305E1,2.355000114E1,-3.750000149E-2
2.151991062E0,-4.138125229E1,2.353125000E1,3.750000000E-1
2.161991062E0,-4.158750153E1,2.347500038E1,7.125000358E-1
2.171991062E0,-4.179375076E1,2.311875153E1,7.125000358E-1
2.181991062E0,-4.188750076E1,2.287500000E1,4.875000119E-1
2.191991062E0,-4.198125076E1,2.261250114E1,-1.875000075E-2
2.201991062E0,-4.198125076E1,2.229375076E1,-7.500000000E-1
2.211991062E0,-4.211250305E1,2.195625114E1,-1.612500072E0
2.221991062E0,-4.228125000E1,2.212500000E1,-2.400000095E0
2.231991062E0,-4.235625076E1,2.231250000E1,-2.981250048E0
2.241991062E0,-4.250625229E1,2.223750114E1,-3.712500095E0
2.251991062E0,-4.252500153E1,2.250000000E1,-3.750000238E0
2.261991062E0,-4.243125153E1,2.250000000E1,-3.506250143E0
2.271991062E0,-4.237500000E1,2.270625114E1,-3.075000048E0
2.281991062E0,-4.267500305E1,2.291250038E1,-2.437500000E0
2.291991062E0,-4.271250153E1,2.300625038E1,-1.631250024E0
2.301991062E0,-4.280625153E1,2.293125153E1,-9.000000358E-1
2.311991062E0,-4.286250305E1,2.244375038E1,-5.812500119E-1
2.321991062E0,-4.306875229E1,2.221875000E1,-2.062500119E-1
2.331991062E0,-4.323750305E1,2.178750038E1,2.437500060E-1
2.341991062E0,-4.344375229E1,2.160000038E1,3.375000060E-1
2.351991062E0,-4.374375153E1,2.131875038E1,5.625000000E-1
2.361991062E0,-4.359375000E1,2.090625000E1,9.187500477E-1
2.371991062E0,-4.408125305E1,2.073750114E1,1.406250000E0
2.381991062E0,-4.445625305E1,1.985625076E1,2.193750143E0
2.391991062E0,-4.509375000E1,1.972500038E1,3.206250191E0
2.401991062E0,-4.539375305E1,1.923750114E1,4.218750000E0
2.411991062E0,-4.599375153E1,1.876875114E1,4.668750286E0
2.421991062E0,-4.633125305E1,1.816875076E1,5.531250000E0
2.431991062E0,-4.663125229E1,1.745625114E1,6.112500191E0
2.441991062E0,-4.713750076E1,1.681875038E1,6.600000381E0
2.451991062E0,-4.734375000E1,1.593750095E1,7.087500095E0
2.461991062E0,-4.771875000E1,1.548750019E1,7.443750381E0
2.471991062E0,-4.781250000E1,1.456875038E1,7.668750286E0
2.481991062E0,-4.811250305E1,1.406250095E1,7.950000286E0
2.491991062E0,-4.788750076E1,1.351875019E1,8.418750763E0
2.501991062E0,-4.822500229E1,1.293750095E1,8.531250000E0
2.511991062E0,-4.854375076E1,1.216875076E1,8.831250191E0
2.521991062E0,-4.882500076E1,1.156875038E1,9.000000000E0
2.531991062E0,-4.869375229E1,1.087500000E1,8.906250000E0
2.541991062E0,-4.873125076E1,1.010625076E1,8.793750763E0
2.551991062E0,-4.871250153E1,9.468750000E0,8.756250381E0
2.561991062E0,-4.856250381E1,8.643750191E0,8.587500572E0
2.571991062E0,-4.863750076E1,7.950000286E0,8.531250000E0
2.581991062E0,-4.850625229E1,7.331250191E0,8.737500191E0
2.591991062E0,-4.818750381E1,6.731250286E0,8.850000381E0
2.601991062E0,-4.809375381E1,5.718750000E0,8.868750572E0
2.611991062E0,-4.816875076E1,4.856250286E0,9.131250381E0
2.621991062E0,-4.830000305E1,4.256250381E0,9.337500572E0
2.631991062E0,-4.830000305E1,3.637500048E0,9.562500000E0
2.641991062E0,-4.854375076E1,3.206250191E0,9.675000191E0
2.651991062E0,-4.899375153E1,2.756250143E0,9.506250381E0
2.661991062E0,-4.878750229E1,2.362500191E0,9.131250381E0
2.671991062E0,-4.903125381E1,2.043750048E0,9.150000572E0
2.681991062E0,-4.920000076E1,1.743750095E0,8.981250763E0
2.691991062E0,-4.921875381E1,1.312500000E0,8.831250191E0
2.701991062E0,-4.888125229E1,1.012500048E0,8.531250000E0
2.711991062E0,-4.905000305E1,6.000000238E-1,8.418750763E0
2.721991062E0,-4.897500229E1,2.062500119E-1,8.137500763E0
2.731991062E0,-4.869375229E1,-3.750000149E-2,7.912500381E0
2.741991062E0,-4.899375153E1,-2.062500119E-1,7.631250381E0
2.751991062E0,-4.906875229E1,-3.187500238E-1,7.087500095E0
2.761991062E0,-4.893750381E1,-4.687500298E-1,7.012500286E0
2.771991062E0,-4.884375381E1,0.000000000E0,6.937500477E0
2.781991062E0,-4.888125229E1,2.812500000E-1,6.825000286E0
2.791991062E0,-4.890000153E1,8.625000119E-1,6.562500477E0
2.801991062E0,-4.878750229E1,1.200000048E0,6.675000191E0
2.811991062E0,-4.882500076E1,1.818750024E0,6.731250286E0
2.821991062E0,-4.869375229E1,2.268750191E0,6.900000095E0
2.831991062E0,-4.846875381E1,2.981250048E0,6.825000286E0
2.841991062E0,-4.835625076E1,4.406250000E0,6.487500191E0
2.851991062E0,-4.845000076E1,5.756250381E0,6.281250477E0
2.861991062E0,-4.813125229E1,7.143750191E0,5.887500286E0
2.871991062E0,-4.790625000E1,8.718750000E0,5.381250381E0
2.881991062E0,-4.768125153E1,1.055625057E1,4.856250286E0
2.891991062E0,-4.736250305E1,1.190625000E1,4.462500095E0
2.901991062E0,-4.702500153E1,1.381875038E1,4.293750286E0
2.911991062E0,-4.655625153E1,1.627500153E1,4.293750286E0
2.921991062E0,-4.590000153E1,1.878750038E1,4.256250381E0
2.931991062E0,-4.515000153E1,2.096250153E1,4.087500095E0
2.941991062E0,-4.443750000E1,2.343750000E1,3.843750238E0
2.951991062E0,-4.318125153E1,2.585625076E1,3.693750143E0
2.961991062E0,-4.198125076E1,2.850000191E1,3.300000191E0
2.971991062E0,-4.050000000E1,3.125625038E1,2.737500191E0
2.981991062E0,-3.918750000E1,3.356250000E1,1.837500095E0
2.991991062E0,-3.796875000E1,3.513750076E1,9.937500358E-1
3.001991062E0,-3.691875076E1,3.628125000E1,7.500000298E-2
3.011991062E0,-3.575625229E1,3.744375229E1,-9.750000238E-1
3.021991062E0,-3.502500153E1,3.830625153E1,-1.856250048E0
3.031991062E0,-3.423750305E1,3.886875153E1,-2.943750143E0
3.041991062E0,-3.356250000E1,3.913125229E1,-4.087500095E0
3.051991062E0,-3.305625153E1,3.913125229E1,-5.531250000E0
3.061991062E0,-3.256875229E1,3.918750000E1,-7.087500095E0
3.071991062E0,-3.211875153E1,3.894375229E1,-8.606250763E0
3.081991062E0,-3.187500191E1,3.885000229E1,-9.843750000E0
3.091991062E0,-3.174375153E1,3.849375153E1,-1.080000019E1
3.101991062E0,-3.136875153E1,3.815625000E1,-1.171875000E1
3.111991062E0,-3.116250038E1,3.791250229E1,-1.230000019E1
3.121991062E0,-3.110625076E1,3.763125229E1,-1.275000095E1
3.131991062E0,-3.103125191E1,3.759375000E1,-1.254375076E1
3.141991062E0,-3.080625153E1,3.768750000E1,-1.179375076E1
3.151991062E0,-3.069375038E1,3.832500076E1,-1.095000076E1
3.161991062E0,-3.028125191E1,3.862500000E1,-1.014375019E1
3.171991062E0,-2.985000038E1,3.930000305E1,-9.562500000E0
3.181991062E0,-2.960625076E1,4.003125000E1,-8.700000763E0
3.191991062E0,-2.911875153E1,4.087500000E1,-7.950000286E0
3.201991062E0,-2.853750038E1,4.190625000E1,-7.143750191E0
3.211991062E0,-2.806875038E1,4.273125076E1,-6.450000286E0
3.221991062E0,-2.773125076E1,4.310625076E1,-5.943750381E0
3.231991062E0,-2.720625114E1,4.340625000E1,-5.381250381E0
3.241991062E0,-2.688750076E1,4.387500000E1,-5.062500000E0
3.251991062E0,-2.670000076E1,4.396875000E1,-4.631250381E0
3.261991062E0,-2.643750191E1,4.381875229E1,-4.406250000E0
3.271991062E0,-2.645625114E1,4.381875229E1,-3.918750048E0
3.281991062E0,-2.638125038E1,4.383750153E1,-3.562500238E0
3.291991062E0,-2.625000191E1,4.378125000E1,-3.243750095E0
3.301991062E0,-2.643750191E1,4.383750153E1,-3.056250095E0
3.311991062E0,-2.673750114E1,4.374375153E1,-2.681250095E0
3.321991062E0,-2.692500114E1,4.370625305E1,-2.362500191E0
3.331991062E0,-2.681250191E1,4.387500000E1,-2.043750048E0
3.341991062E0,-2.711250114E1,4.396875000E1,-1.743750095E0
3.351991062E0,-2.688750076E1,4.393125153E1,-1.612500072E0
3.361991062E0,-2.700000191E1,4.361250305E1,-1.425000072E0
3.371991062E0,-2.715000153E1,4.329375076E1,-1.218750000E0
3.381991062E0,-2.731875038E1,4.306875229E1,-1.068750024E0
3.391991062E0,-2.731875038E1,4.288125229E1,-1.087500095E0
3.401991062E0,-2.756250191E1,4.252500153E1,-7.125000358E-1
3.411991062E0,-2.786250114E1,4.235625076E1,-6.187500358E-1
3.421991062E0,-2.784375191E1,4.215000153E1,-5.437500477E-1
3.431991062E0,-2.836875153E1,4.198125076E1,-2.250000089E-1
