Time (s),Acceleration x (m/s^2),Acceleration y (m/s^2),Acceleration z (m/s^2)
3.002822934,-2.725425005,4.206582069,5.45085001
3.007578195,-2.766103029,4.223331928,5.601597786
3.012333455,-2.82831645,4.249652863,5.814558983
3.017088715,-2.919243574,4.311866283,6.123233318
3.021843976,-3.03888464,4.402793884,6.549155712
3.026599236,-3.14895463,4.491328239,7.00139904
3.031354497,-3.230310678,4.610969067,7.479963779
3.036109757,-3.306880951,4.728217602,7.953742504
3.040865018,-3.304488182,4.84546566,8.437092781
3.045620278,-3.26141715,4.977071285,8.937192917
3.050375538,-3.215953588,5.060820103,9.420542717
3.055130747,-3.134597778,5.106283665,9.958928108
3.059886007,-3.00538516,5.146961689,10.52363396
3.064641268,-2.82831645,5.132604599,11.07637596
3.069396528,-2.629712105,5.091926575,11.62911797
3.074151788,-2.428714991,4.996213913,12.08854008
3.078907049,-2.210968018,4.888536453,12.43549919
3.083662309,-2.01475668,4.742574692,12.69870949
3.08841757,-1.880758643,4.560719967,12.79202938
3.09317283,-1.773081541,4.386044025,12.75853062
3.09792809,-1.713261008,4.192225456,12.56949711
3.102683351,-1.701296926,3.984049797,12.21775246
3.107438611,-1.782652855,3.816552162,11.76311588
3.112193872,-1.873580098,3.656233072,11.23190975
3.116949132,-2.017149448,3.555734396,10.67916775
3.121704393,-2.242074728,3.515056372,10.10010433
3.126459653,-2.46221447,3.522234917,9.552147865
3.131214913,-2.691925526,3.517449379,9.03051281
3.135970174,-2.883351326,3.512663603,8.508877754
3.140725434,-3.014956474,3.488735437,8.037490845
3.145480695,-3.117847919,3.467200041,7.635497093
3.150235955,-3.175275564,3.450450182,7.302894592
3.154991215,-3.230310678,3.457628727,7.010970116
3.159746476,-3.270988464,3.498306751,6.857829571
3.164501736,-3.30927372,3.56530571,6.774080753
3.169256997,-3.383451223,3.653840065,6.800402164
3.174012257,-3.433700562,3.802195072,6.932007313
3.178767518,-3.412165165,3.9170506,7.11625433
3.183522778,-3.378665686,4.029513359,7.348358154
3.188277986,-3.297309637,4.125226021,7.680960655
3.193033247,-3.172882795,4.199403763,8.027919769
3.197788507,-3.007778168,4.271188259,8.370093346
3.202543768,-2.852244616,4.402793884,8.760123253
3.207299028,-2.720639229,4.536791801,9.154939651
3.212054288,-2.589034081,4.694717884,9.51386261
3.216809549,-2.452643156,4.883750916,9.841679573
3.221564809,-2.316252232,5.087141037,10.11685371
3.22632007,-2.184647083,5.235496044,10.38963604
3.23107533,-2.031506538,5.364708424,10.60020447
3.23583059,-1.835294962,5.505885124,10.77727318
3.240585851,-1.665404558,5.697310925,10.90409279
3.245341111,-1.545763373,5.869594097,10.97587776
3.250096372,-1.430907965,6.029912949,10.99262714
3.254851632,-1.292124271,6.175875187,10.90409279
3.259606893,-1.0863415,6.302694798,10.81316566
3.264362153,-0.9571290612,6.412764549,10.66959572
3.269117413,-0.813559711,6.451049805,10.50688457
3.273872674,-0.6604190469,6.47497797,10.28913784
3.278627934,-0.5335994363,6.460621357,10.04267693
3.283383143,-0.4163511395,6.393621922,9.779465675
3.288138403,-0.3349951804,6.309873104,9.501898766
3.292893715,-0.2488535494,6.216553211,9.171689034
3.297648924,-0.1746760458,6.099305153,8.860622406
3.302404184,-0.1459621787,5.955735683,8.535198212
3.307159445,-0.1698904037,5.819344521,8.15473938
3.311914705,-0.2273181528,5.680561066,7.779066563
3.316669965,-0.2943171859,5.522634506,7.412964344
3.321425226,-0.3493520916,5.364708424,7.039684296
3.326180486,-0.4139583111,5.182853699,6.69511795
3.330935747,-0.5096712112,5.032105923,6.343372822
3.335691007,-0.6317051649,4.902893543,6.022734642
3.340446268,-0.7537391186,4.776073933,5.742774487
3.345201528,-0.8638089895,4.651647091,5.50109911
3.349956788,-1.009771109,4.582255363,5.309673309
3.354712049,-1.146162033,4.474578381,5.175675392
3.359467309,-1.268195987,4.388436794,5.075176716
3.36422257,-1.371087432,4.290330887,4.98903513
3.36897783,-1.452443361,4.208974838,4.948357105
3.37373309,-1.497906923,4.14197588,4.912465096
3.378488351,-1.557727575,4.07736969,4.914857864
3.383243611,-1.603191137,4.058227062,4.962714195
3.387998872,-1.648654819,4.022335052,4.98903513
3.39275408,-1.715653777,4.02712059,5.084748268
3.39750934,-1.756331801,4.07736969,5.216353416
3.402264601,-1.761117458,4.149154663,5.376672268
3.407019861,-1.828116536,4.235296249,5.606383324
3.411775122,-1.868794441,4.342973232,5.874379635
3.416530382,-1.844866276,4.479363918,6.221338749
3.421285643,-1.828116536,4.610969067,6.592226505
3.426040903,-1.753939033,4.737788677,6.999006271
3.430796163,-1.703689694,4.862215519,7.472784996
3.435551424,-1.619940877,4.941178799,7.999206066
3.440306684,-1.526620865,5.029713154,8.547162056
3.445061945,-1.43808639,5.106283665,9.111868858
3.449817205,-1.339980721,5.187639713,9.671789169
3.454572465,-1.270588875,5.240281582,10.23170948
3.459327726,-1.205982566,5.276174068,10.69591713
3.464082986,-1.107876897,5.29292345,11.11944675
3.468838247,-1.036092162,5.331208706,11.43051338
3.473593507,-0.9738788009,5.364708424,11.66022491
3.478348715,-0.9092726111,5.388636589,11.82532978
3.483103976,-0.8853443861,5.422136307,11.90429306
3.487859236,-0.866201818,5.393422127,11.87079334
3.492614497,-0.8494520187,5.38624382,11.75354481
3.497369757,-0.8327022791,5.345565796,11.5764761
3.502125018,-0.8015955687,5.240281582,11.27258778
3.506880278,-0.8398807645,5.127819061,10.82512951
3.511635538,-0.8805587292,5.020142078,10.3657074
3.516390799,-0.9355936646,4.869394302,9.889535904
3.521146059,-1.009771109,4.764110088,9.410971642
3.52590132,-1.124626637,4.673182487,8.937192917
3.53065658,-1.277767301,4.608576298,8.496912956
3.53541184,-1.466800332,4.551148891,8.090133667
3.540167101,-1.629512191,4.476971149,7.745566845
3.544922361,-1.792224169,4.381258488,7.398607731
3.549677622,-1.928615093,4.340580463,7.118647575
3.554432882,-2.048256159,4.278367043,6.917650223
3.559188143,-2.146361828,4.266402721,6.788437843
3.563943403,-2.210968018,4.259224415,6.699903488
3.568698611,-2.275574446,4.275974274,6.673582554
3.573453872,-2.280359983,4.302295208,6.687939167
3.578209132,-2.23728919,4.311866283,6.74536705
3.582964393,-2.163111687,4.331008911,6.865008354
3.587719653,-2.038684845,4.376472473,7.063612461
3.592474913,-1.878365755,4.445864677,7.276573658
3.597230174,-1.753939033,4.517649174,7.501499176
3.601985434,-1.564906001,4.591826439,7.745566845
3.606740695,-1.395015597,4.639683247,7.958528042
3.611495955,-1.19880414,4.699503899,8.157132149
3.616251215,-1.033699393,4.754538536,8.33898735
3.621006476,-0.8805587292,4.821537495,8.463413239
3.625761736,-0.7345965505,4.850251675,8.585447311
3.630516997,-0.6293123364,4.92442894,8.614161491
3.635272257,-0.5886343718,4.984249592,8.592626572
3.640027465,-0.5383850932,5.046463013,8.597412109
3.644782778,-0.5479564071,5.151747227,8.595019341
3.649537986,-0.5503492355,5.240281582,8.606983185
3.654293247,-0.6221339107,5.338387489,8.638090134
3.659048507,-0.6843472719,5.422136307,8.647661209
3.663803768,-0.7776673436,5.50109911,8.654839516
3.668559028,-0.8255237937,5.539384365,8.669196129
3.673314288,-0.8853443861,5.580062389,8.685946465
3.678069549,-0.9140582681,5.582455158,8.738588333
3.682824809,-0.9379864931,5.563312531,8.822337151
3.68758007,-0.9499505758,5.532206059,8.920442581
3.69233533,-1.009771109,5.52981329,8.992227554
3.69709059,-1.091127157,5.496313572,9.131011009
3.701845851,-1.174875975,5.479563713,9.272188187
3.706601111,-1.261017561,5.455635548,9.408578873
3.711356372,-1.330409408,5.434100151,9.494720459
3.716111632,-1.428515077,5.426921844,9.537791252
3.720866893,-1.457229018,5.379065514,9.580862045
3.725622153,-1.445264935,5.326423168,9.588040352
3.730377361,-1.426122308,5.2737813,9.537791252
3.735132622,-1.42372942,5.230710506,9.480362892
3.739887882,-1.39022994,5.204389095,9.425328255
3.744643143,-1.404586911,5.161318302,9.305686951
3.749398403,-1.433300734,5.187639713,9.181260109
3.754153663,-1.430907965,5.206781864,9.092725754
3.758908924,-1.42372942,5.206781864,9.032905579
3.763664184,-1.430907965,5.235496044,8.903693199
3.768419445,-1.445264935,5.254638672,8.798408508
3.773174705,-1.426122308,5.257031441,8.709874153
3.777929965,-1.402194023,5.266602516,8.61655426
3.782685226,-1.349551916,5.221138954,8.585447311
3.787440486,-1.306481123,5.170889854,8.499305725
3.792195747,-1.253839016,5.103890896,8.453842163
3.796950955,-1.268195987,5.091926575,8.374878883
3.801706215,-1.217946768,5.046463013,8.33180809
3.806461476,-1.189232826,5.015356064,8.271987915
3.811216736,-1.117448211,4.969892502,8.221738815
3.815971997,-1.03848505,4.907679081,8.13320446
3.820727257,-0.9810572863,4.886143684,8.049455643
3.825482518,-0.9068797827,4.847858906,7.999206066
3.830237778,-0.8279166222,4.821537495,7.929814339
3.834993038,-0.7633104324,4.79521656,7.896314621
3.839748299,-0.7298108935,4.788038254,7.836493969
3.844503559,-0.6891329288,4.78085947,7.776673794
3.84925882,-0.6843472719,4.752145767,7.704888821
3.854014028,-0.6987041831,4.718646049,7.724031448
3.858769288,-0.7010970116,4.685146809,7.771887779
3.863524549,-0.7202396393,4.658825874,7.812565804
3.868279809,-0.756131947,4.658825874,7.814958572
3.87303507,-0.7944171429,4.646861553,7.838887215
3.87779033,-0.8015955687,4.634897232,7.850851059
3.88254559,-0.7824530005,4.630111694,7.879564762
3.887300851,-0.7657032609,4.649254322,7.999206066
3.892056111,-0.7800601721,4.689932346,8.099704742
3.896811372,-0.8087740541,4.733003139,8.231309891
3.901566632,-0.8398807645,4.826323509,8.417949677
3.906321893,-0.8207381964,4.934000492,8.609375954
3.911077153,-0.8422735929,5.024927616,8.800801277
3.915832413,-0.8183453679,5.099104881,9.011369705
3.920587622,-0.813559711,5.170889854,9.202795982
3.925342882,-0.7800601721,5.233103275,9.353543282
3.930098143,-0.732203722,5.30728054,9.533005714
3.934853403,-0.6843472719,5.355136871,9.69811058
3.939608663,-0.6053841114,5.417350292,9.841679573
3.944363924,-0.524028182,5.441278458,9.95414257
3.949119184,-0.4498506486,5.474778175,10.06181908
3.953874445,-0.3613162339,5.467599869,10.15513897
3.958629705,-0.2775674164,5.469992638,10.25085258
3.963384965,-0.1794617027,5.448457241,10.30588722
3.968140226,-0.08853443712,5.381458282,10.38724327
3.972895486,-0.01914258115,5.312066078,10.4159565
3.977650695,0.05982056633,5.237888813,10.39920712
3.982406007,0.09571290761,5.111069202,10.31785107
3.987161215,0.08374879509,4.996213913,10.14796066
3.991916476,0.02871387079,4.934000492,9.887143135
3.996671736,-0.004785645287,4.811966419,9.611968994
4.001426997,0.002392822644,4.704289436,9.312865257
4.006182257,-0.02632104978,4.563112736,9.008976936
4.010937518,-0.02871387079,4.441078663,8.690732002
4.015692778,-0.1052841991,4.376472473,8.36052227
4.020448038,-0.2105683982,4.323830605,8.063812256
4.025203299,-0.3182454109,4.290330887,7.779066563
4.029958559,-0.4307080805,4.264009953,7.544569969
4.03471382,-0.5407779217,4.275974274,7.343572617
4.03946908,-0.6340979934,4.264009953,7.178467751
4.044224288,-0.6867401004,4.273581028,7.020541668
4.048979549,-0.7657032609,4.295116425,6.910471916
4.053734809,-0.8327022791,4.287938118,6.845865726
4.05849007,-0.8757730722,4.302295208,6.819544315
4.06324533,-0.9044869542,4.292723656,6.905686378
4.06800059,-0.9571290612,4.314259052,7.08036232
4.072755851,-1.033699393,4.374079704,7.25743103
4.077511111,-1.091127157,4.474578381,7.494320393
4.082266372,-1.153340459,4.601397991,7.759923935
4.087021632,-1.160519004,4.776073933,8.070990562
4.091776893,-1.146162033,4.922036171,8.422736168
4.096532101,-1.076770186,5.05124855,8.752944946
4.101287361,-1.019342422,5.185246468,9.078369141
4.106042622,-0.9643075466,5.333601475,9.379864693
4.110797882,-0.8685946465,5.491528034,9.702896118
4.115553143,-0.7776673436,5.644668579,10.03549862
4.120308403,-0.6747759581,5.761917114,10.39202881
4.125063663,-0.5862415433,5.831308842,10.66241741
4.129818924,-0.4761717021,5.855237007,10.88016415
4.134574184,-0.3996013701,5.838487148,11.07159042
4.139329445,-0.313459754,5.807380676,11.17687416
4.144084705,-0.2344966233,5.730810165,11.2438736
4.148839965,-0.1124626622,5.69252491,11.23669529
4.153595174,-0.05503492057,5.654240131,11.10269737
4.158350434,0.04067798331,5.603990555,10.87298584
4.163105695,0.1339980662,5.525027275,10.53799057
4.167860955,0.2368894368,5.422136307,10.13838959
4.172616215,0.342173636,5.32163763,9.714859962
4.177371476,0.3924229145,5.190032482,9.293723106
4.182126736,0.404387027,5.048855782,8.822337151
4.186881997,0.366101861,4.883750916,8.377271652
4.191637257,0.2775674164,4.773681164,7.956135273
4.196392518,0.1651047617,4.663611412,7.587640762
4.201147778,0.0382851623,4.591826439,7.245467186
4.205902986,-0.1028913707,4.517649174,6.943971157
4.210658247,-0.2775674164,4.469792843,6.709474564
4.215413507,-0.4378865361,4.424329281,6.508477688
4.220168768,-0.5216353536,4.376472473,6.360122681
4.224924028,-0.6125625968,4.354937077,6.259624004
4.229679288,-0.6915257573,4.316651821,6.199803352
4.234434549,-0.7680960894,4.323830605,6.183053493
4.239189809,-0.8303094506,4.340580463,6.21894598
4.24394507,-0.8422735929,4.371686935,6.321837425
4.24870033,-0.8614161611,4.433900356,6.467799664
4.25345559,-0.8949156404,4.479363918,6.68076086
4.258210799,-0.8829515576,4.541577339,6.905686378
4.262966059,-0.8494520187,4.608576298,7.159325123
4.26772132,-0.7992027402,4.649254322,7.479963779
4.27247658,-0.7010970116,4.716253281,7.826922894
4.27723184,-0.5934200287,4.850251675,8.157132149
4.281987101,-0.4785645306,4.931607246,8.513663292
4.286742361,-0.3541377485,5.00339222,8.836693764
4.291497622,-0.2440679073,5.070391178,9.135796547
4.296252882,-0.1052841991,5.077569485,9.36550808
4.30100809,0.03110669367,5.096712112,9.540184021
4.305763351,0.1483550072,5.106283665,9.604789734
4.310518611,0.2249253243,5.125426292,9.607182503
4.315273872,0.2679961324,5.151747227,9.540184021
4.320029132,0.2488535494,5.201996326,9.427721024
4.324784393,0.1914258152,5.254638672,9.276973724
4.329539653,0.1220339537,5.314459324,9.083154678
4.334294913,0.04546362907,5.381458282,8.944371223
4.339050174,-0.0382851623,5.424529076,8.784051895
4.343805434,-0.1316052526,5.43649292,8.697910309
4.348560643,-0.1890329868,5.472385406,8.575876236
4.353315903,-0.2679961324,5.4652071,8.446663857
4.358071163,-0.313459754,5.446064472,8.372486115
4.362826424,-0.3924229145,5.424529076,8.293522835
4.367581684,-0.418743968,5.383851051,8.250452042
4.372336945,-0.4283152521,5.352744102,8.274380684
4.377092205,-0.4546363056,5.324030399,8.291130066
4.381847465,-0.457029134,5.324030399,8.350951195
4.386602726,-0.4737788737,5.268995285,8.38923645
4.391357986,-0.4235295951,5.261816978,8.415556908
4.396113195,-0.3708875179,5.252245903,8.444271088
4.400868455,-0.2991028428,5.201996326,8.477770805
4.405623715,-0.2392822653,5.163711071,8.528019905
4.410378976,-0.2249253243,5.118247509,8.551948547
4.415134236,-0.2081755698,5.087141037,8.542376518
4.419889497,-0.1746760458,5.094319344,8.561519623
4.424644757,-0.1220339537,5.087141037,8.599804878
4.429400018,-0.1076770201,5.072783947,8.633303642
4.434155226,-0.0933200866,5.034498692,8.678768158
4.438910486,-0.1052841991,4.998606682,8.702695847
4.443665747,-0.1603191197,4.979464054,8.726624489
4.448421007,-0.2057827413,4.914857864,8.685946465
4.453176268,-0.2081755698,4.850251675,8.61655426
4.457931528,-0.2273181528,4.749752998,8.554341316
4.462686788,-0.2560320199,4.706682205,8.501698494
4.467442049,-0.2823530734,4.666004181,8.41077137
4.472197309,-0.327816695,4.673182487,8.36052227
4.47695257,-0.390030086,4.663611412,8.317451477
4.481707778,-0.4115654826,4.687539577,8.336593628
4.486463038,-0.4378865361,4.704289436,8.36052227
4.491218299,-0.4546363056,4.680361271,8.408378601
4.495973559,-0.4546363056,4.666004181,8.470592499
4.50072882,-0.3756731451,4.637290478,8.501698494
4.50548408,-0.3038884699,4.587040901,8.556734085
4.51023934,-0.2273181528,4.558327198,8.58784008
4.514994601,-0.1196411327,4.508078098,8.585447311
4.519749809,-0.07178468257,4.486542225,8.585447311
4.52450507,-0.007178467698,4.481756687,8.58784008
4.52926033,0.02632104978,4.52482748,8.51844883
4.53401559,-0.0143569354,4.577469826,8.511270523
4.538770851,-0.05982056633,4.66839695,8.513663292
4.543526111,-0.1148554832,4.816751957,8.51844883
4.548281372,-0.1794617027,4.950749874,8.496912956
4.553036632,-0.2464607358,5.060820103,8.537590981
4.557791893,-0.2775674164,5.154139996,8.623732567
4.562547101,-0.3110669553,5.252245903,8.714659691
4.567302361,-0.337387979,5.33599472,8.829515457
4.572057622,-0.3732803464,5.43649292,8.961120605
4.576812882,-0.4474578202,5.536991596,9.12861824
4.581568143,-0.4594219327,5.639883041,9.317651749
4.586323403,-0.4881358147,5.773880959,9.552147865
4.591078663,-0.5383850932,5.931807518,9.762716293
4.595833924,-0.5359922647,6.044270039,10.04028416
4.600589132,-0.500099957,6.197410583,10.32981491
4.605344393,-0.409172684,6.278766632,10.61456108
4.610099653,-0.2703889608,6.364908218,10.94477081
4.614854913,-0.05264209956,6.415157318,11.22233772
4.619610174,0.1842473447,6.386443615,11.43529987
4.624365434,0.4953143001,6.31226635,11.53819084
4.629120695,0.7896314859,6.192625046,11.53579807
4.633875955,1.071984529,6.063412666,11.41615677
4.638631163,1.296909928,5.831308842,11.13619614
4.643386424,1.478764415,5.644668579,10.74616623
4.648141684,1.610369682,5.422136307,10.28435135
4.652896945,1.679761529,5.261816978,9.7698946
4.657652205,1.667797327,5.108676434,9.221938133
4.662407465,1.552941918,4.967499733,8.650053978
4.667162726,1.371087432,4.857429981,8.063812256
4.671917934,1.13419795,4.778466702,7.534998417
4.676673195,0.8685946465,4.713860512,7.032505512
4.681428455,0.5886343718,4.642076015,6.601797581
4.686183715,0.3397808075,4.579862595,6.21894598
4.690938976,0.1363908947,4.493721008,5.934200287
4.695694236,-0.0239282269,4.443471432,5.723631859
4.700449497,-0.1603191197,4.388436794,5.589633465
4.705204757,-0.2991028428,4.366901398,5.553741455
4.709959965,-0.3684946895,4.36211586,5.603990555
4.714715226,-0.4809573591,4.402793884,5.704489231
4.719470486,-0.5503492355,4.484149456,5.840879917
4.724225747,-0.6005984545,4.610969067,6.017949104
4.728981007,-0.6173482537,4.756931305,6.257231236
4.733736268,-0.5670989752,4.93878603,6.520441532
4.738491528,-0.5096712112,5.132604599,6.826723099
4.743246736,-0.4450650215,5.347958565,7.135396957
4.748001997,-0.4211367965,5.577669621,7.434499741
4.752757257,-0.3732803464,5.78584528,7.764709473
4.757512518,-0.3469592929,6.034698486,8.137989998
4.762267778,-0.2799602449,6.262016773,8.544769287
4.767023038,-0.1746760458,6.415157318,8.949156761
4.771778299,-0.04307080805,6.544369698,9.375079155
4.776533559,0.1148554832,6.611369133,9.765109062
4.781288768,0.313459754,6.63290453,10.12642574
4.786044028,0.5264210105,6.623332977,10.4279213
4.790799288,0.7178468108,6.532405853,10.65045357
4.795554549,0.9260223508,6.400800705,10.79162979
4.800309809,1.03848505,6.254838467,10.81555843
4.80506507,1.136590719,6.034698486,10.77727318
4.80982033,1.162911773,5.845665932,10.66002464
4.814575538,1.107876897,5.630311489,10.4279213
4.819330799,1.00737834,5.402993679,10.13121128
4.824086059,0.8350951076,5.20917511,9.765109062
4.82884132,0.6101697683,5.012963295,9.370293617
4.83359658,0.3732803464,4.831109047,8.937192917
4.83835184,0.1220339537,4.656432629,8.506484032
4.843107101,-0.09810572863,4.500899315,8.118846893
4.847862309,-0.3086741269,4.338187218,7.7838521
4.85261757,-0.4929214716,4.208974838,7.477570534
4.85737283,-0.6675975323,4.103690624,7.207181931
4.86212809,-0.8039883971,4.024727821,6.960721016
4.866883351,-0.8973084688,3.952943087,6.781259537
4.871638611,-0.9571290612,3.878765583,6.611369133
4.876393872,-1.000199914,3.83569479,6.467799664
4.88114908,-0.9834501147,3.804588079,6.364908218
4.88590434,-0.9619147182,3.830909014,6.290730953
4.890659601,-0.9379864931,3.845266104,6.245266914
4.895414861,-0.8638089895,3.921836376,6.21894598
4.900170122,-0.7896314859,4.036691666,6.250052929
4.904925382,-0.732203722,4.163511276,6.333801746
4.909680643,-0.6556333899,4.352544308,6.441478729
4.914435851,-0.5790630579,4.536791801,6.570691109
4.919191111,-0.4785645306,4.704289436,6.764509678
4.923946372,-0.3708875179,4.852644444,7.025327206
