Time (s),Acceleration x (m/s^2),Acceleration y (m/s^2),Acceleration z (m/s^2)
10.0018935,-0.9858429432,-6.089733601,-3.18006134
10.00664892,-0.9523434043,-5.424529076,-2.82831645
10.01140434,-0.5742774606,-4.888536453,-2.337787628
10.01615975,-0.2033899277,-4.42672205,-1.866401672
10.02091517,0.2703889608,-3.950550079,-1.371087432
10.02567053,0.6723831892,-3.495913982,-0.8781659007
10.03042595,1.10309124,-3.103491068,-0.5599204898
10.03518137,1.600798368,-2.780459881,-0.4785645306
10.03993678,2.172683001,-2.562713146,-0.4163511395
10.0446922,2.68713975,-2.455035925,-0.2799602449
10.04944762,3.06999135,-2.414358139,0.1722832322
10.05420303,3.304488182,-2.388036966,0.6436693072
10.05895845,3.462414265,-2.46221447,1.060020447
10.06371381,3.450450182,-2.502892494,1.392622828
10.06846923,3.196810961,-2.639283419,1.636690736
10.07322465,2.605783939,-2.87856555,1.761117458
10.07798006,1.732403636,-3.239881754,1.672582984
10.08273548,0.7728816867,-3.641875982,1.607976794
10.0874909,-0.08135596663,-4.07736969,1.648654819
10.09224631,-0.8542376757,-4.465006828,1.758724689
10.09700173,-1.576870084,-4.754538536,1.859223247
10.10175715,-2.139183521,-4.972285271,1.928615093
10.10651251,-2.617748022,-5.118247509,1.931007862
10.11126793,-2.971885681,-5.156532764,1.90229404
10.11602335,-3.268595695,-5.103890896,1.785045743
10.12077876,-3.462414265,-5.060820103,1.603191137
10.12553418,-3.696911097,-5.044070244,1.304088354
10.1302896,-3.929014683,-5.012963295,0.9690931439
10.13504501,-4.266402721,-5.077569485,0.5982056856
10.13980043,-4.529613495,-5.084748268,0.1052841991
10.14455579,-4.778466702,-5.168497086,-0.5072783828
10.14931121,-4.929214478,-5.268995285,-1.105484009
10.15406663,-4.936393261,-5.381458282,-1.500299811
10.15882204,-4.814359188,-5.525027275,-1.919043779
10.16357746,-4.675575256,-5.62791872,-2.318645239
10.16833288,-4.235296249,-5.781059742,-2.658426046
10.17308829,-3.041277647,-5.989234924,-3.101098061
10.17784371,-1.512263894,-6.15433979,-3.665804386
10.18259913,-0.1316052526,-6.285944939,-4.383651257
10.18735454,1.05523479,-6.417550564,-5.18046093
10.19210996,2.225325108,-6.675975323,-5.943771362
10.19686533,3.254238844,-7.037291527,-6.355337143
10.20162074,4.259224415,-7.532605648,-6.163911343
10.20637616,5.288137913,-8.166703224,-5.312066078
10.21113158,6.525227547,-8.71705246,-3.859622955
10.21588699,7.800601959,-8.779266357,-1.713261008
10.22064241,8.673981667,-8.341380119,1.004985452
10.22539782,9.181260109,-7.960920811,4.345366001
10.23015324,9.51386261,-7.814958572,8.48973465
10.23490866,10.01874828,-8.152346611,12.30867958
10.23966402,11.35394382,-9.126225471,14.14875984
10.24441944,13.34237862,-10.60499001,13.14616776
10.24917486,16.26880074,-12.24646664,9.810572624
10.25393027,18.00359726,-13.65823174,6.21894598
10.25868569,18.61855316,-14.61775398,3.481556892
10.26344111,19.326828,-15.38824272,1.648654819
10.26819652,20.4059906,-16.051054,0.7393822074
10.27295194,21.65025902,-16.55115509,0.4977070987
10.27770736,22.66960144,-16.91486359,0.7250252366
10.28246277,23.31087875,-17.03689766,1.098305583
10.28721819,23.37787628,-16.73540115,1.557727575
10.29197355,23.11227417,-15.89791393,1.758724689
10.29672897,22.3250351,-14.68714523,1.574477315
10.30148439,20.70509338,-13.24666595,1.172483087
10.3062398,18.96072578,-11.77029419,0.8015955687
10.31099522,17.14936066,-10.40638542,0.457029134
10.31575064,15.51266956,-9.221938133,0.2344966233
10.32050605,14.249259,-8.343772888,0.05264209956
10.32526147,13.24666595,-8.130811691,-0.03110669367
10.33001689,12.82074356,-9.410971642,-0.1459621787
10.3347723,12.26560879,-11.18166065,-0.6580262184
10.33952767,10.5858469,-12.60778236,-1.964507341
10.34428308,8.152346611,-13.71326637,-3.780659676
10.3490385,6.025127411,-14.62014675,-4.929214478
10.35379392,6.056233883,-15.22074509,-3.957728624
10.35854934,6.221338749,-15.44567013,-2.309073925
10.36330475,5.45085001,-15.14178181,-0.9355936646
10.36806017,4.070191383,-14.70389557,0.2105683982
10.37281559,2.39760828,-14.11765385,1.440479279
10.377571,0.70348984,-13.3208437,2.806781054
10.38232642,-0.6149554253,-12.66999626,3.225524902
10.38708178,-1.816152334,-11.98325539,1.64626193
10.3918372,-3.37387991,-11.17687416,-2.825923443
10.39659262,-4.474578381,-10.14078236,-5.472385406
10.40134803,-4.259224415,-9.367900848,-2.337787628
10.40610345,-3.974478483,-8.927620888,-1.296909928
10.41085887,-3.828516245,-8.554341316,-1.469193101
10.41561428,-2.768495798,-8.508877754,-0.5503492355
10.4203697,-1.258624673,-8.484949112,0.6771687865
10.42512512,-0.1459621787,-8.312665939,1.203589797
10.42988053,0.2368894368,-7.953742504,1.13419795
10.4346359,0.1770688742,-7.630711555,0.9954141974
10.43939131,-0.02632104978,-7.511070251,0.6484549642
10.44414673,-0.2679961324,-7.472784996,0.1148554832
10.44890215,-0.4761717021,-7.537391186,-0.3780659735
10.45365756,-0.6221339107,-7.60678339,-0.5383850932
10.45841298,-0.8159525394,-7.67138958,-0.6101697683
10.4631684,-1.153340459,-7.743174076,-0.7202396393
10.46792381,-1.543370605,-7.793423176,-0.6819544435
10.47267923,-2.050648928,-7.903493404,-0.6221339107
10.4774346,-2.502892494,-8.063812256,-0.5742774606
10.48219001,-2.770888567,-8.20498848,-0.6771687865
10.48694543,-2.900100946,-8.353343964,-0.7513462901
10.49170085,-2.696711063,-8.573483467,-0.7250252366
10.49645626,-2.325823545,-8.831908226,-0.6580262184
10.50121168,-1.861616015,-9.150154114,-0.6364908218
10.5059671,-1.220339537,-9.49232769,-0.5527420044
10.51072251,-0.6436693072,-9.812965393,-0.4139583111
10.51547793,-0.1555334777,-10.12164021,-0.1818545163
10.52023335,0.1483550072,-10.48774147,0.2081755698
10.52498876,0.409172684,-10.83948612,0.7345965505
10.52974413,0.6101697683,-11.12183952,1.249053478
10.53449954,0.9858429432,-11.42333508,1.730010748
10.53925496,1.430907965,-11.66022491,2.203789711
10.54401038,1.720439434,-11.66979599,2.648854733
10.54876579,1.816152334,-11.5334053,3.208775282
10.55352121,1.825723648,-11.24148083,3.823730469
10.55827663,1.792224169,-10.82273674,4.371686935
10.56303204,1.808973908,-10.3776722,4.718646049
10.56778746,1.897508383,-9.891928673,4.862215519
10.57254288,1.971685886,-9.444471359,4.922036171
10.57729824,2.069791555,-9.006584167,5.041677475
10.58205371,2.146361828,-8.633303642,5.089533806
10.58680908,2.14157629,-8.269595146,5.113461971
10.59156449,2.108076811,-7.975277901,5.072783947
10.59631991,2.057827473,-7.781459332,4.838287354
10.60107532,1.945364833,-7.680960655,4.443471432
10.60583074,1.847259045,-7.623532772,3.907479286
10.61058616,1.651047587,-7.563712597,3.541377544
10.61534158,1.383051515,-7.475177765,3.512663603
10.62009699,1.091127157,-7.467999458,3.682554007
10.62485241,1.131805062,-7.65703249,3.8213377
10.62960777,1.344766378,-7.948956966,3.897907972
10.63436319,1.584048629,-8.329415321,3.828516245
10.63911861,1.935793519,-8.72423172,3.646661758
10.64387402,2.232503414,-9.042476654,3.510270834
10.64862944,2.443071842,-9.320044518,3.349951744
10.65338486,2.742174864,-9.504291534,3.201596737
10.65814027,3.132204771,-9.655039787,3.115455151
10.66289569,3.256631613,-9.74835968,3.029313564
10.66765111,3.550948858,-9.753145218,2.981456995
10.67240652,3.912265062,-9.686145782,2.900100946
10.67716189,4.275974274,-9.59282589,2.914458036
10.6819173,4.445864677,-9.470791817,2.95752883
10.68667272,4.560719967,-9.310472488,2.935993433
10.69142814,4.630111694,-9.15733242,2.962314367
10.69618355,4.632504463,-9.023334503,2.89292264
10.70093897,4.622933388,-8.956335068,2.76371026
10.70569439,4.522434711,-8.903693199,2.679961443
10.7104498,4.41236496,-8.863015175,2.584248543
10.71520522,4.352544308,-8.798408508,2.488535643
10.71996064,4.237689018,-8.757730484,2.378465652
10.72471605,4.120440483,-8.791230202,2.215753794
10.72947147,3.9625144,-8.841479301,1.976471543
10.73422684,3.952943087,-8.815158844,1.708475351
10.73898225,3.806980848,-8.798408508,1.478764415
10.74373767,3.708875179,-8.812766075,1.289731383
10.74849309,3.627519131,-8.798408508,1.136590719
10.7532485,3.620340586,-8.848658562,0.9499505758
10.75800392,3.613162279,-8.977870941,0.784845829
10.76275934,3.608376503,-9.142974854,0.6652047038
10.76751475,3.570091486,-9.367900848,0.6173482537
10.77227017,3.59641242,-9.576076508,0.5479564071
10.77702558,3.6299119,-9.765109062,0.4953143001
10.78178095,3.684946775,-9.923035622,0.457029134
10.78653637,3.75673151,-9.982855797,0.4977070987
10.79129178,3.732803345,-9.944570541,0.650847733
10.7960472,3.790230989,-9.808179855,0.7513462901
10.80080262,4.019941807,-9.607182503,0.6029912829
10.80555803,4.402793884,-9.449256897,0.06699903309
10.81031345,5.388636589,-9.554540634,-5.539384365
10.81506887,10.44227791,-10.49491978,-31.91786194
10.81982428,11.46640587,-10.35613632,-26.75654221
10.82457965,9.25783062,-9.15733242,-8.396414757
10.82933506,6.585047722,-8.140382767,0.4163511395
10.83409048,5.568098068,-7.764709473,3.376272678
10.8388459,5.575276852,-7.812565804,4.07736969
10.84360131,5.931807518,-8.090133667,4.096512318
10.84835673,6.345765591,-8.417949677,4.17069006
10.85311215,6.807580471,-8.834300995,4.244867325
10.85786756,7.25743103,-9.2865448,4.314259052
10.86262298,7.575676441,-9.717252731,4.388436794
10.8673784,7.695317745,-10.07139015,4.615755081
10.87213381,7.628318787,-10.32024384,5.06560564
10.87688918,7.599604607,-10.54516983,5.623133183
10.8816446,7.587640762,-10.71984577,6.101697922
10.88640001,7.635497093,-10.78205872,6.369693756
10.89115543,7.752745152,-10.80120182,6.398407936
10.89591085,8.063812256,-10.77488041,6.178267956
10.90066626,8.425128937,-10.73898792,5.709274769
10.90542168,8.738588333,-10.69352436,5.10149765
10.9101771,8.939585686,-10.71984577,4.532006264
10.91493251,9.075976372,-10.78445148,3.952943087
10.91968793,9.209974289,-10.86341476,3.385843992
10.92444329,9.305686951,-10.97827053,2.553141832
10.92919871,10.73420238,-11.44247818,-4.216153622
10.93395413,13.58166122,-12.28953743,-13.28495121
10.93870954,14.98146248,-12.4618206,-14.51246929
10.94346496,13.36152172,-11.301301,-6.98704195
10.94822038,10.92323494,-9.753145218,-1.42372942
10.95297579,9.760323524,-8.559126854,0.8279166222
10.95773121,9.346364975,-7.709674358,1.727617979
10.96248663,9.116654396,-6.994220734,2.175075769
10.96724204,9.023334503,-6.510870457,2.536391973
10.97199741,8.908478737,-6.149554253,2.912065268
10.97675282,8.807980537,-5.970092297,3.163311481
10.98150824,8.886942863,-6.049055576,3.115455151
10.98626366,8.989834785,-6.326622963,2.694318295
10.99101908,9.078369141,-6.982256413,1.954936147
10.99577449,8.968298912,-7.922635555,1.050449133
11.00052991,8.315058708,-9.142974854,0.1507478207
11.00528533,7.417750359,-10.71506023,-0.4618147612
11.01004074,6.783652306,-12.4498558,-0.9116654396
11.01479616,6.561119556,-14.23968792,-1.177268744
11.01955158,6.42472887,-16.07976723,-1.189232826
11.02430694,6.422336102,-17.8696003,-1.165304661
11.02906236,6.599404812,-19.52064705,-0.9858429432
11.03381777,6.735795975,-20.93001938,-0.7728816867
11.03857319,6.63290453,-22.23171425,-0.5431707501
11.04332861,6.463014126,-23.37548447,-0.3302095234
11.04808402,6.051448345,-24.51446724,-0.1531406492
11.05283944,5.441278458,-25.47398949,-0.05264209956
11.05759486,4.687539577,-26.33061981,0.1148554832
11.06235027,3.737588882,-26.68236542,0.4211367965
11.06710569,2.634497643,-26.51486778,0.8255237937
11.07186105,1.239482164,-25.78505707,1.232303619
11.07661647,-0.2871387303,-24.56711006,1.677368641
11.08137189,-1.725225091,-22.92563438,2.239681959
11.0861273,-2.514856577,-21.11665916,2.861815929
11.09088272,-3.225524902,-19.31007957,3.608376503
11.09563814,-3.651447296,-17.50588989,4.484149456
11.10039355,-3.742374659,-15.79980755,5.30728054
11.10514897,-3.491128206,-14.22293758,5.871986866
11.10990439,-3.582055569,-12.71545982,2.644068956
11.1146598,-5.163711071,-10.45663452,-10.84905815
11.11941517,-5.862415314,-8.750552177,-12.90688515
11.12417058,-4.78085947,-8.597412109,-7.338787079
11.128926,-4.113262177,-8.946763992,-1.828116536
11.13368142,-4.484149456,-9.638289452,1.567298889
11.13843684,-4.756931305,-10.05703354,2.845066071
11.14319225,-4.565505505,-10.16710377,2.682354212
11.14794767,-3.8668015,-10.05703354,1.648654819
11.15270308,-2.969492912,-9.535398483,-0.01914258115
11.1574585,-1.883151412,-8.860622406,-1.615155339
11.16221392,-1.079162955,-8.003992081,-2.617748022
11.16696928,-0.2488535494,-7.195217609,-2.821137905
11.1717247,0.2679961324,-6.386443615,-2.165504456
11.17648012,0.5431707501,-5.673382282,-1.280160069
11.18123553,0.8159525394,-5.142175674,-0.4642075896
11.18599095,1.177268744,-4.615755081,0.1363908947
11.19074637,1.447657704,-4.199403763,0.4857429862
11.19550178,1.80658114,-3.871587038,0.6963114142
11.2002572,2.14157629,-3.524627686,0.7010970116
11.20501262,2.455035925,-3.194418192,0.6245267391
11.20976803,2.641676188,-2.95752883,0.524028182
11.21452345,2.711068153,-2.70149684,0.6652047038
11.21927881,2.641676188,-2.52682066,0.8015955687
11.22403423,2.400001049,-2.455035925,0.9954141974
11.22878965,2.038684845,-2.376072884,1.115055323
11.23354506,1.473978758,-2.344966173,1.222732425
11.23830048,0.7585247755,-2.469393015,1.189232826
11.2430559,0.007178467698,-2.644068956,1.162911773
11.24781131,-0.6939185858,-2.935993433,1.162911773
11.25256673,-1.316052437,-3.273381472,1.244267821
11.25732215,-1.840080619,-3.625126362,1.378265858
11.26207756,-2.244467735,-3.905086517,1.392622828
11.26683293,-2.620140791,-4.074976921,1.34237349
11.27158835,-3.129812002,-4.230510235,1.03848505
11.27634376,-3.646661758,-4.381258488,0.6029912829
11.28109918,-4.146761417,-4.457828522,0.04307080805
11.2858546,-4.522434711,-4.601397991,-0.5048855543
11.29061001,-4.771288395,-4.646861553,-0.9451649189
11.29536543,-4.778466702,-4.694717884,-1.284945726
11.30012085,-4.78085947,-4.742574692,-1.713261008
11.30487626,-4.761716843,-4.800002098,-2.165504456
11.30963168,-4.61814785,-4.945964336,-2.723032236
11.3143871,-3.795016766,-5.187639713,-3.376272678
11.31914246,-2.232503414,-5.434100151,-4.072584152
11.32389788,-0.6484549642,-5.702096462,-4.883750916
11.32865329,0.7417750359,-6.020341873,-5.582455158
11.33340871,1.93340075,-6.451049805,-5.891129494
11.33816413,3.014956474,-7.003791809,-5.838487148
11.34291954,4.02712059,-7.72163868,-5.484349728
11.34767496,5.111069202,-8.499305725,-4.733003139
11.35243038,6.125626087,-8.784051895,-3.464807272
11.35718579,6.95114994,-8.372486115,-1.715653777
11.36194116,7.781459332,-7.733603001,0.70348984
11.36669658,8.604590416,-7.168896675,4.060619831
11.37145199,9.399007797,-6.843472958,8.164310455
11.37620741,10.00678444,-6.884150982,12.33978653
11.38096283,11.11705399,-7.348358154,15.37627792
11.38571824,12.887743,-8.537590981,15.8500576
11.39047366,15.22313786,-9.970891953,13.76351547
11.39522908,18.03231239,-11.55494022,9.107083321
11.39998449,19.86521339,-12.6245327,4.984249592
11.40473991,20.48495483,-13.47877026,2.452643156
11.40949532,20.97309113,-14.03869057,0.6053841114
11.41425069,21.66461563,-14.39522076,-0.457029134
11.41900611,22.17907333,-14.48136234,-0.70348984
11.42376152,22.6145668,-14.38086414,-0.2273181528
11.42851694,22.58585358,-13.98126316,0.2632105052
11.43327236,21.82732773,-13.20598793,0.5431707501
11.43802777,20.5687027,-12.06461143,0.650847733
11.44278319,19.26222229,-10.66720295,0.9379864931
11.44753861,17.88874245,-9.360722542,1.172483087
11.45229402,16.27119446,-8.164310455,1.42372942
11.45704939,14.71346664,-6.965506554,1.698904037
11.4618048,12.8949213,-5.812166214,1.921436548
11.46656022,10.93998528,-4.838287354,2.11046958
11.47131564,9.016156197,-4.153940201,2.20618248
11.47607105,7.106683254,-3.871587038,2.268395901
11.48082647,5.429314613,-3.802195072,2.256431818
11.48558189,4.070191383,-4.058227062,2.143969059
11.4903373,4.407579422,-5.69252491,1.674975872
11.49509272,4.675575256,-7.142575741,0.732203722
11.49984814,4.450650215,-8.549555779,-1.048056364
11.50460355,3.711267948,-10.40399265,-3.9170506
11.50935892,4.122833252,-12.21775246,-3.24466753
11.51411434,4.742574692,-13.85683632,-0.8709874153
11.51886975,4.744967461,-15.76152229,0.3014956415
11.52362517,4.29750967,-17.84327888,0.8255237937
11.52838058,3.744767427,-19.90828514,0.8446664214
11.533136,3.251846075,-22.51167488,-4.230510235
11.53789142,3.491128206,-24.11247444,-9.360722542
11.54264684,2.74935317,-22.77967072,-7.70728159
11.54740225,0.8087740541,-19.58286095,-3.21356082
11.55215767,-0.2344966233,-16.67318726,-0.366101861
11.55691303,-0.6723831892,-14.51725483,1.574477315
11.56166845,-0.7106683254,-12.98106289,2.481357098
11.56642387,-0.3637090325,-11.97607708,2.354537487
11.57117928,0.2991028428,-11.17926693,1.849651933
11.5759347,0.7776673436,-10.3657074,1.258624673
11.58069012,1.028913736,-9.602396965,0.7226324677
11.58544553,1.067198873,-8.831908226,0.3565305769
11.59020095,0.8231309652,-8.238488197,-0.09092725813
11.59495637,0.4594219327,-7.745566845,-0.4857429862
11.59971178,-0.1387837082,-7.300501823,-0.7968099117
11.60446715,-0.679561615,-6.905686378,-1.004985452
11.60922256,-1.282552958,-6.537191391,-1.13419795
11.61397798,-1.873580098,-6.190232277,-1.122233868
11.6187334,-2.469393015,-5.929414749,-1.021735311
11.62348881,-2.857030153,-5.783452511,-0.9379864931
11.62824423,-3.103491068,-5.77148819,-0.8781659007
11.63299965,-3.203989506,-5.819344521,-0.8805587292
11.63775506,-3.024527788,-5.938985825,-0.9523434043
11.64251048,-2.699103832,-6.321837425,-0.9475577474
11.6472659,-2.268395901,-6.88893652,-0.8350951076
11.65202126,-1.808973908,-7.494320393,-0.6867401004
11.65677668,-1.414158225,-8.087740898,-0.6197410822
11.6615321,-1.064806104,-8.748159409,-0.5670989752
11.66628751,-0.6891329288,-9.449256897,-0.5312066078
11.67104293,-0.3613162339,-10.15513897,-0.3780659735
11.67579835,-0.02632104978,-10.9615202,-0.1268195957
11.68055376,0.1052841991,-11.83011532,0.3445664644
11.68530918,0.2297109663,-12.73699474,1.160519004
11.6900646,0.3541377485,-13.58166122,2.36650157
11.69482001,0.4498506486,-14.27797318,3.780659676
11.69957538,0.5910272002,-14.66800308,5.395814896
11.70433079,0.8398807645,-14.77089405,6.994220734
11.70908621,1.239482164,-14.45025635,8.044670105
11.71384163,1.651047587,-13.7036953,8.437092781
11.71859704,1.8855443,-12.70828152,8.322237015
11.72335246,1.782652855,-11.5836544,7.843672752
11.72810788,1.380658627,-10.45663452,7.417750359
11.73286329,0.9140582681,-9.396614075,7.010970116
11.73761871,0.5048855543,-8.609375954,6.484549522
11.74237408,0.2129612118,-8.161917686,5.726024628
11.74712949,0.2943171859,-7.838887215,5.644668579
11.75188491,0.0933200866,-7.482356548,5.431707382
11.75664033,-0.1459621787,-7.133004189,4.972285271
11.76139574,-0.2297109663,-6.793223381,4.409972191
11.76615116,-0.2225325108,-6.563512325,3.938585997
11.77090658,-0.1651047617,-6.597012043,3.536591768
11.77566199,0.1100698411,-6.659225464,3.115455151
11.78041741,0.5599204898,-6.774080753,2.600998163
11.78517282,1.05523479,-6.996613503,2.189432621
11.78992824,1.469193101,-7.298109055,1.923829436
11.79468361,1.777867198,-7.72163868,1.768295884
11.79943902,2.069791555,-8.068597794,1.770688772
11.80419444,2.385644197,-8.398807526,1.878365755
11.80894986,2.646461725,-8.77448082,1.938186288
11.81370527,2.900100946,-9.25783062,2.043470621
11.81846069,3.156133175,-9.712467194,2.218146563
11.82321611,3.43609333,-10.13599682,2.411965132
11.82797152,3.699303865,-10.50449181,2.672782898
11.83272694,3.890729666,-10.79162979,2.816352367
11.83748236,4.082155228,-10.98305607,2.868994236
11.84223772,4.266402721,-11.01894855,2.912065268
11.84699314,4.400400639,-11.05962658,2.880958557
11.85174855,4.512863636,-11.05962658,2.854637384
11.85650397,4.608576298,-10.99980545,2.794816732
11.86125939,4.687539577,-10.87298584,2.694318295
11.8660148,4.728217602,-10.72702408,2.550748825
11.87077022,4.857429981,-10.57627583,2.409572363
11.87552564,4.972285271,-10.2723875,2.256431818
11.88028105,4.943571568,-9.980463028,2.153540373
11.88503642,4.922036171,-9.688538551,2.086541414
11.88979184,4.881358147,-9.401400566,1.983649969
11.89454725,4.843072891,-9.05922699,1.880758643
11.89930267,4.833501816,-8.798408508,1.770688772
11.90405808,4.816751957,-8.683553696,1.627119422
