Time (s),Acceleration x (m/s^2),Acceleration y (m/s^2),Acceleration z (m/s^2)
9.000050962,-3.3257022249781634,2.9638693511560024,0.5942434953774304
9.004840806,-3.3376086342026245,2.55641332625738,0.4278383609402969
9.009617317,-3.3441294368903227,2.140934803186334,0.2640861364603719
9.014380546,-3.3452385950352834,1.7195535562508824,0.10401265318571291
9.019170337,-3.3409117753030957,1.2943991578501557,-0.05138998938111438
9.0239469,-3.3311250286894665,0.8675916830980294,-0.20117320186075702
9.028710129,-3.3158537654568483,0.4412231714836206,-0.344441170517564
9.033499973,-3.295072066428532,0.017340132454444948,-0.4803594757883274
9.038276483,-3.268752363273057,-0.40207264438571955,-0.6081629426793693
9.04303966,-3.236865510930539,-0.8151067481071697,-0.7271626189465551
9.047829504,-3.1993812649785496,-1.2199430912892226,-0.8367517985386006
9.052606067,-3.1562691655301927,-1.614863010095815,-0.9364110333972229
9.057369296,-3.1074998174425272,-1.9982574478290043,-1.025712104163558
9.062159087,-3.0530465450053175,-2.3686342112737746,-1.1043209459239023
9.06693565,-2.9928873889324574,-2.7246233464535954,-1.1719995452798455
9.071698879,-2.927007404925148,-3.064980729129687,-1.2286068382071622
9.076488723,-2.8554012160899354,-3.3885900030803824,-1.2740986453081538
9.081265233,-2.7780757655022605,-3.6944630257242386,-1.3085266844791215
9.086028462,-2.695053209706365,-3.981738997106775,-1.3320367029659106
9.090818306,-2.6063738886746446,-4.24968245616501,-1.3448657726999274
9.095594817,-2.5120993028073078,-4.4976803290034155,-1.3473387952998357
9.100358046,-2.4123150234364674,-4.725238209016376,-1.3398642663013507
9.10514789,-2.307133460746548,-4.931976039326735,-1.322929351957401
9.1099244,-2.1966964126995636,-5.117623355355178,-1.2970943361874732
9.114687629,-2.081177320815229,-5.282014230470933,-1.2629864997415574
9.119477473,-1.9607831634917612,-5.425082051516275,-1.2212934980841823
9.124253983,-1.8357559246548443,-5.5468542342482765,-1.1727563085148585
9.129017212,-1.7063735843868295,-5.6474469718911395,-1.1181618202338646
9.133807056,-1.5729505882049994,-5.727060093355214,-1.058335143169179
9.138583567,-1.4358377621865153,-5.785972091452567,-0.994131712327614
9.143346796,-1.2954216516267987,-5.824535365779175,-0.9264292643022896
9.14813664,-1.1521232710254106,-5.843171710008268,-0.8561197615026616
9.152913202,-1.0063962628159813,-5.842368059338324,-0.7841013378020609
9.157676379,-0.8587244714605602,-5.8226725009484035,-0.711270336707305
9.162466223,-0.7096189484581158,-5.784690538686685,-0.63851350990608
9.167242785,-0.559614412628039,-5.729081592967493,-0.5667004402201496
9.172005962,-0.4092651988447458,-5.656555708048359,-0.4966762487051474
9.176795806,-0.2591407372694531,-5.567870431528979,-0.4292546410206911
9.181572317,-0.10982061398712023,-5.463827825061047,-0.3652113433492726
9.186335546,0.038110727407215314,-5.345271560912644,-0.3052779731437319
9.19112539,0.18406957569536905,-5.213084056297778,-0.2501363849298948
9.1959019,0.3274787588527175,-5.068183596421767,-0.2004135264673105
9.200665129,0.46777358776217415,-4.911521398147699,-0.15667683605574953
9.205454973,0.6044078530197429,-4.744078569110206,-0.11943020794163497
9.210231535,0.7368597890235744,-4.566862921916353,-0.08911054971083608
9.214994712,0.8646379192329066,-4.380905609557052,-0.0660849530146989
9.219784556,0.9872866976890768,-4.187257555931868,-0.050648496452586185
9.224561067,1.1043918642984332,-3.986985663997422,-0.04302269633789333
9.229324296,1.215585434624802,-3.781168793025316,-0.04335461693699842
9.23411414,1.3205502487844059,-3.5708935054295563,-0.05171664632988237
9.23889065,1.4190240084791175,-3.357249592343272,-0.06810693724294309
9.243653879,1.5108027364491385,-3.1413253954353513,-0.09245050419489348
9.248443723,1.5957435989292055,-2.9242029502476488,-0.12460095942211387
9.253220285,1.6737670392231412,-2.7069529834671253,-0.16434286082489016
9.257983462,1.744858179301146,-2.4906298028288996,-0.21139463620091184
9.262773306,1.8090674562737328,-2.2762661235490858,-0.2654120398876682
9.267549817,1.8665104715009133,-2.0648678791355835,-0.3259920910868732
9.272313098,1.9173670416727693,-1.8574090670704808,-0.3926774378965332
9.277102942,1.961879453132946,-1.6548266812792058,-0.46496108758557636
9.281879452,2.0003499327153373,-1.4580157836578358,-0.5422914419464365
9.286642681,2.033137360179406,-1.267824766403452,-0.6240775765764597
9.291432473,2.0606532587497908,-1.0850508556529281,-0.7096947044978323
9.296209035,2.0833571110902693,-0.9104359051186377,-0.798489767390447
9.300972212,2.1017510580711583,-0.7446625261080289,-0.8897871016052703
9.305762056,2.1163740467274104,-0.5883505975868583,-0.9828941307469367
9.310538619,2.1277955016654406,-0.4420541968366684,-1.0771070416588342
9.315301796,2.1366086006972234,-0.3062589878028312,-1.1717164058274383
9.32009164,2.143423240547371,-0.18138010045165204,-1.2660127133018042
9.324868202,2.148858782045457,-0.0677605303462228,-1.3592917909990099
9.329631379,2.1535366662893605,0.03432991682195022,-1.4508600815623423
9.334421275,2.158072993880452,0.12469511588238338,-1.5400397625923958
9.339197785,2.163071158521483,0.20321253345188786,-1.6261736889408813
9.343961015,2.169114624051646,0.2698325509839058,-1.708630142751639
9.348750858,2.1767599303878167,0.32457719691662595,-1.7868073770240607
9.353527369,2.1865300089023183,0.3675382917645617,-1.8601379386832004
9.358290598,2.1989078816277576,0.39887501683523935,-1.9280927565303139
9.363080442,2.214330811562185,0.41881092429911765,-1.9901849781208718
9.367856952,2.233184963560288,0.42763041347772185,-2.0459735377234085
9.372633515,2.255800627207515,0.4256747053040091,-2.095066435236904
9.377410025,2.282448045080717,0.4133373537939875,-2.1371237034865516
9.382186535,2.3133338822732648,0.3910593398832525,-2.1718600388716025
9.386949765,2.348598366267083,0.3593237989694648,-2.1990470680758913
9.391739608,2.3883131202217918,0.3186504388392312,-2.2185152216121757
9.396516119,2.4324797073249345,0.2695897092652138,-2.2301551834806776
9.401279348,2.4810288986351434,0.2127167883778172,-2.2339188853365743
9.406069192,2.53382067145696,0.1486254538761587,-2.2298200135273825
9.410845754,2.590644939420708,0.07792190915184057,-2.2179339985520454
9.415608931,2.651223008969386,0.0012186353530585503,-2.198397459388741
9.420398775,2.715209749904807,-0.08087165976596124,-2.171407080221056
9.425175285,2.782196460188164,-0.16774192671080496,-2.1372179046588173
9.429938515,2.851714397585471,-0.25879642578558,-2.0961410425015177
9.434728358,2.9232389432547925,-0.35345608169824994,-2.0485407958384863
9.439504869,2.996194355176701,-0.4511634818480528,-1.9948312238486328
9.444281431,3.069959062542175,-0.5513874636948584,-1.9354721779704176
9.449057942,3.143871445918412,-0.6536272417440419,-1.8709648502434262
9.453834504,3.2172360423302218,-0.7574160299987066,-1.8018468869772948
9.458597733,3.2893301094909506,-0.8623241211455227,-1.7286871272013096
9.463387577,3.3594104794773627,-0.967961389244874,-1.6520800305523526
9.468164035,3.426720629301003,-1.0739791883537477,-1.5726398625001166
9.472927265,3.490497894106244,-1.1800716254323016,-1.4909947063239675
9.477717108,3.5499807480284185,-1.2859761922024429,-1.407780371337376
9.482493671,3.6044160779275685,-1.3914737474517649,-1.3236342657995233
9.487256848,3.6530663761667626,-1.4963878486724298,-1.239189301023301
9.492046744,3.6952167803168985,-1.6005834398853482,-1.1550678906050122
9.496823254,3.730181890219797,-1.7039649109328123,-1.071876105647469
9.501586431,3.7573122963407823,-1.8064735522398243,-0.9901980434709836
9.506376275,3.776000757870166,-1.908084437768212,-0.9105904636959593
9.511152837,3.7856879745714354,-2.008802777280973,-0.8335777417569624
9.515929348,3.785867902766652,-2.1086597867545644,-0.7596471858403645
9.520705858,3.7760925728171277,-2.207708132538802,-0.6892447588883345
9.525482421,3.755976372669122,-2.3060170104828117,-0.6227712426726625
9.530258931,3.7251997691960415,-2.40366692564185,-0.5605788760282162
9.535035442,3.683512445968184,-2.500744241355545,-0.5029684941481407
9.539812004,3.6307358425799343,-2.5973355684959647,-0.4501871903344779
9.544588515,3.5667650866820426,-2.693522066615417,-0.4024265156922797
9.549365077,3.4915703153937243,-2.7893737287212823,-0.3598212259177326
9.554141587,3.405197387876442,-2.8849437206737973,-0.32244857764687307
9.55891815,3.307767995645163,-2.9802628449823327,-0.2903281700262769
9.56369466,3.1994791817329737,-3.075334197266135,-0.26342232054092396
9.568471223,3.0806022840682545,-3.1701280819395437,-0.24163695796088414
9.5732344,2.951481322234518,-3.264577251761123,-0.22482300972685856
9.578024244,2.812530849986209,-3.358572533672636,-0.21277825626925598
9.582800754,2.6642332983355557,-3.451958900764782,-0.20524962068240804
9.587563983,2.5071358356277433,-3.5445320471833606,-0.20193585889487467
9.592353879,2.341846771818457,-3.636035519301352,-0.20249061304999336
9.597130337,2.169031534304605,-3.7261584525267626,-0.2065257892817864
9.601893619,1.9894082423426007,-3.8145339587173264,-0.2136152204062175
9.60668341,1.803742906535324,-3.9007382043685532,-0.22329857412495394
9.611459921,1.6128442793064566,-3.9842902145470336,-0.23508546800984095
9.616223202,1.4175583819868727,-4.064652431920654,-0.24845975369943896
9.621012994,1.2187627344450516,-4.141232054116682,-0.2628839343627281
9.625789504,1.0173603144275098,-4.213383165957712,-0.2778036815837791
9.630552785,0.8142732761474633,-4.280409675886652,-0.2926524204262189
9.635342577,0.6104364611789324,-4.3415690581642945,-0.3068559545797302
9.64011914,0.4067907391833036,-4.396076894312785,-0.3198371071756386
9.64489565,0.20427622110910024,-4.443112198895512,-0.33102035701188726
9.649672212,0.003825392951096971,-4.481823506155031,-0.33983645436852356
9.654448723,-0.1936437763567978,-4.51133568531538,-0.3457270050202315
9.659211952,-0.38723469410378597,-4.5307574434673,-0.3481490150195833
9.664001796,-0.5760789065198092,-4.539189465813255,-0.34657939177485225
9.668778306,-0.7593426976334564,-4.535733133582474,-0.3405193983439773
9.673541535,-0.9362334538044221,-4.519499750158208,-0.32949905739885943
9.678331379,-1.106005721284372,-4.489620196042077,-0.31308149898864235
9.683107942,-1.2679668829022939,-4.445254923458136,-0.290867242310805
9.687871119,-1.4214823798121852,-4.385604191968992,-0.26249839658454827
9.692660962,-1.5659804054106738,-4.309918437790057,-0.22766276026732019
9.697437473,-1.7009560011594915,-4.217508661972237,-0.18609779173243063
9.702200702,-1.8259744881175017,-4.107756716754318,-0.13759441857194382
9.706990546,-1.9406741734731714,-3.9801253656048767,-0.08200064723944217
9.711767108,-2.0447682784041277,-3.834167991083826,-0.0192249299792724
9.716530285,-2.1380460424907377,-3.669537825764768,0.05076075803915289
9.721320129,-2.220372971023899,-3.4859965849877437,0.12791818165976776
9.72609664,-2.2916902050450214,-3.283422385940195,0.21214050108397725
9.730859869,-2.3520130096782097,-3.061816845216441,0.30325037228207746
9.735649712,-2.4014283937283336,-2.8213112562994187,0.4009985430745697
9.740426223,-2.440091891780984,-2.5621717590436934,0.5050629907195064
9.745202785,-2.4682235581196315,-2.2848034248396374,0.6150486397308222
9.749979296,-2.4861032386225066,-1.989753193200686,0.7304876901707456
9.754755858,-2.4940652015633864,-1.677711607470997,0.8508405779030783
9.759519035,-2.492492220430157,-1.3495133087620375,0.9754975800026084
9.764308879,-2.4818092113809365,-1.0061362579462143,1.1037810710170557
9.769085442,-2.4624765348896545,-0.6486996656870702,1.2349484292724706
9.773848671,-2.4349830756494426,-0.27846062031080077,1.3681955871351548
9.778638515,-2.399839217023119,0.10319058696660605,1.5026612151390195
9.783415025,-2.357569826336078,0.4947364302493513,1.637431526684747
9.788178254,-2.3087073651803895,0.8945393917277612,1.7715456866929666
9.792968098,-2.25378523476005,1.3008504504773708,1.9040018033168908
9.797744608,-2.1933314602952643,1.7118187790914976,2.033763476343782
9.802507837,-2.127862810721252,2.125502600088364,2.1597668695544074
9.807297681,-2.0578794404363094,2.539881143844003,2.28092826757243
9.812074192,-1.9838601288240147,2.952867639206147,2.3961520710388
9.816837421,-1.9062581810140495,3.3623232569642076,2.5043391775603405
9.821627265,-1.8254980402773167,3.7660719150843094,2.6043956899808753
9.826403775,-1.7419726489187353,4.161915843186514,2.695241888231814
9.831167004,-1.6560415806798015,4.5476517922482325,2.7758213964091127
9.835956848,-1.5680299534935245,4.921087764079016,2.8451104727876353
9.84073341,-1.4782281170101912,5.2800601239333265,2.902127347158363
9.84549664,-1.386892094950928,5.622450949060817,2.9459415271108433
9.850286431,-1.294244748629656,5.946205456513285,2.9756829926908934
9.855062994,-1.2004776155765964,6.24934934564651,2.990551197283258
9.859826223,-1.1057533665919566,6.530005884916921,2.9898237916339023
9.864616067,-1.01020881592875,6.786412569068488,2.9728649876386664
9.869392577,-0.91395841253975,7.0169371717548445,2.939133478856744
9.874155754,-0.8170981351973723,7.220093020032482,2.888189835626647
9.87894565,-0.7197097105785087,7.394553320900594,2.8197032941582814
9.88372216,-0.6218650708960864,7.539164376022081,2.73345786106667
9.88848539,-0.5236309661944937,7.652957528794852,2.6293576575467843
9.893275233,-0.4250736459349094,7.735159697905274,2.5074314308378716
9.898051744,-0.3262635250161452,7.785202363235035,2.3678361648848223
9.902814973,-0.2272797510074801,7.8027288833558694,2.2108597272674833
9.907604817,-0.12821459219493792,7.7876000386836575,2.0369224955918477
9.912381327,-0.029177570061091597,7.73989771053697,1.8465779136111928
9.917144556,0.06970073506795668,7.659926623732838,1.6405119353043895
9.9219344,0.16826527042131806,7.548214098839648,1.419541323889545
9.92671091,0.2663335475991542,7.405507779671169,1.184610782199667
9.93147414,0.36369318067880796,7.232771321903041,0.9367889009071567
9.936263983,0.46009996847292156,7.031178049653583,0.6772629216792984
9.941040494,0.5552765554591469,6.802102608298848,0.4073323234117057
9.945817056,0.6489116974337953,6.547110663465526,0.12840125116439377
9.950593567,0.740660149538338,6.267946717816576,-0.1580301807337805
9.955370129,0.8301431861203903,5.966520138648635,-0.4503756677872934
9.960133358,0.9169497540377559,5.644889510194955,-0.7469735205867786
9.964923202,1.0006382535768286,5.30524544463494,-1.0460984275119993
9.969699712,1.080738934158969,4.949892004950478,-1.3459740934083793
9.974476223,1.15675688539957,4.581226910780498,-1.644786659971655
9.979252785,1.2281755977614772,4.201720715187755,-1.9406988009394575
9.984029296,1.2944610609089897,3.8138951556823524,-2.231864372914861
9.988792525,1.3550663618608212,3.420300896888142,-2.5164434909603015
9.993582369,1.409436739107072,3.0234948948345477,-2.7926178872051297
9.998358879,1.457015042894569,2.6260176239095876,-3.0586064007619975
10.00312211,1.497247545756352,2.230370416842154,-3.312680438342826
10.00791195,1.5295900409812242,1.8389931754280493,-3.553179237157106
10.01268846,1.5535141601526035,1.4542427147543775,-3.778524755024269
10.01745169,1.5685138343504221,1.0783720060821946,-3.9872360072773247
10.02224154,1.5741118174228415,0.7135105830163052,-4.177942666231995
10.0270181,1.5698661842545438,0.36164637185002796,-4.349397737086174
10.03178128,1.5553767125355478,0.02460919974073347,-4.500489124501155
10.03657112,1.5302910534783303,-0.2959437766859759,-4.630249907345168
10.04134768,1.4943105955217195,-0.598540495010331,-4.737867146021997
10.04611091,1.447195925617242,-0.8819040557834201,-4.822689058698499
10.05090075,1.3887717956850838,-1.1449602549639974,-4.884230420927549
10.05567726,1.3189315079937143,-1.3868424315965926,-4.922176068849994
10.06044049,1.2376406436072667,-1.606893525078152,-4.9363824204169235
10.06523034,1.1449400735038515,-1.8046652918269426,-4.92687697223249
10.0700069,1.040948211775598,-1.9799147002593116,-4.893855779724844
10.07477008,0.92586249120308,-2.1325976020476745,-4.837678980424461
10.07955992,0.7999600590665177,-2.262859858268754,-4.758864467955013
10.08433643,0.6635977029735499,-2.3710261714406706,-4.658079863561623
10.08909966,0.5172110237550579,-2.45758693170779,-4.5361329616013375
10.09388956,0.36131287758872965,-2.5231834253998495,-4.393960846786474
10.09866607,0.19649111406177946,-2.568591778044155,-4.232617896008916
10.10342924,0.023405641125297083,-2.594706013872295,-4.053262887530878
10.10821909,-0.1572151484753173,-2.602520611939735,-3.857145445660114
10.11299565,-0.3445785518436254,-2.593112926723147,-3.6455920498039274
10.11775888,-0.5378322920064067,-2.5676258196824238,-3.4199918331179804
10.12254867,-0.7360697740625178,-2.527250818800289,-3.1817823881298932
10.12732523,-0.9383358185860161,-2.4732120866579734,-2.9324357851238685
10.13208846,-1.1436328279614243,-2.40675143557491,-2.673444994023755
10.13687831,-1.3509273394775945,-2.3291145823992125,-2.4063108820950694
10.14165487,-1.55915691658929,-2.2415387874393335,-2.132529938044652
10.14641805,-1.7672373268019959,-2.1452419734653048,-1.8535828484707533
10.15120789,-1.974069951498442,-2.041413373187504,-1.5709240262342299
10.1559844,-2.17854937024395,-1.93120570836798,-1.285972163735067
10.16074763,-2.3795710601014686,-1.8157288616382141,-1.0001018586153787
10.16553747,-2.5760391493350276,-1.6960449638104316,-0.7146363357020948
10.17031398,-2.7668741643349595,-1.5731647854039705,-0.4308412670129701
10.17507721,-2.9510207082667472,-1.44804529158932,-0.14991967101240575
10.17986706,-3.127455009521271,-1.3215881951109805,0.12699214735326708
10.18464362,-3.2951922775299223,-1.1946393224525629,0.3988276731554938
10.1894068,-3.4532938033629828,-1.0679885953091814,0.6645923496818503
10.19419664,-3.600873743588924,-0.94237042356653,0.923364929559003
10.1989732,-3.7371055288588053,-0.8184643093685353,1.1742981121394844
10.20373643,-3.861227843483075,-0.6968954769861788,1.4166185744886208
10.20852628,-3.972550127782397,-0.5782353721070581,1.6496264950143749
10.21330278,-4.070457560114278,-0.463001916404693,1.8726946489760699
10.21806602,-4.1544154802925775,-0.3516594545406668,2.0852671317886275
10.22285586,-4.223973221619047,-0.24461838396346028,2.2868577493437825
10.22763237,-4.278767325297745,-0.1422345058276857,2.4770481091676597
10.2323956,-4.318524117674347,-0.04480817335050752,2.6554854493900257
10.23718544,-4.343061636267309,0.047416659643298206,2.8218802483059537
10.24196195,-4.352290894415854,0.1342533716648141,2.9760036613499374
10.24672518,-4.346216476778937,0.21557346323809215,3.1176848330676594
10.25151502,-4.324936459270146,0.2913070794347712,3.2468081295073556
10.25629159,-4.288641647677149,0.3614431480869656,3.363310332217547
10.26105476,-4.237614129761381,0.4260290279374868,3.467177829495778
10.26584466,-4.172225136908394,0.4851695763573682,3.558443834316066
10.27062117,-4.092932214203228,0.5390255647989279,3.6371856520354
10.2753844,-4.000275702480117,0.5878113910042195,3.703522015005525
10.28017424,-3.894874542207251,0.6317920592391553,3.757610495889645
10.28495075,-3.7774214164526203,0.6712794226129324,3.799645006948808
10.28971398,-3.6486772580951756,0.7066277041474107,3.8298533889014243
10.29450383,-3.509465154550626,0.7382283350903339,3.848495090217363
10.29928034,-3.360663691384931,0.7665041695031116,3.8558589358361113
10.30404362,-3.203199784150089,0.791903152908001,3.8522609831222807
10.30883346,-3.0380410554457504,0.8148915392725229,3.8380424621421714
10.31360997,-2.866187821435915,0.8359467643877767,3.813567796794839
10.3183732,-2.688664758699165,0.8555500943644594,3.779222702698944
10.32316299,-2.5065123282323722,0.874179175221902,3.7354123568034647
10.32793956,-2.3207780385121475,0.8923006132055846,3.6825596323432026
10.33270278,-2.132507633587948,0.9103627155094122,3.6211033910410055
10.33749258,-1.9427362951038512,0.9287885176243608,3.551496822563463
10.34226914,-1.7524799488504388,0.9479692168604498,3.474205819455969
10.34703237,-1.5627267669390243,0.9682581221187014,3.3897073744126045
10.35182221,-1.3744289560363294,0.9899652182711045,3.2984879860171747
