Time (s),Acceleration x (m/s^2),Acceleration y (m/s^2),Acceleration z (m/s^2)
4.004280363,-1.784387861188761e+24,-2.046234795273186e+25,3.6890605634383346e+25
4.009035311,-1.7855666242097897e+24,-2.0374000802073203e+25,3.718767942913343e+25
4.013790207,-1.7866984535751578e+24,-2.0285605584240982e+25,3.7482369985974847e+25
4.018545155,-1.7877835469026971e+24,-2.01971643754831e+25,3.77746785864578e+25
4.02330005,-1.788822102393915e+24,-2.010867924220374e+25,3.8064606548868732e+25
4.028054998,-1.7898143188215877e+24,-2.0020152240894505e+25,3.8352155229615728e+25
4.032809894,-1.7907603955165565e+24,-1.9931585418076836e+25,3.863732602462607e+25
4.037564842,-1.7916605323537787e+24,-1.984298081025545e+25,3.8920120370754065e+25
4.042319738,-1.7925149297377125e+24,-1.9754340443882607e+25,3.920053974719713e+25
4.047074686,-1.793323788587102e+24,-1.9665666335332785e+25,3.947858567691817e+25
4.051829582,-1.7940873103192448e+24,-1.9576960490887328e+25,3.975425972807234e+25
4.05658453,-1.7948056968338187e+24,-1.9488224906728594e+25,4.002756351543679e+25
4.061339425,-1.7954791504963319e+24,-1.939946156894304e+25,4.029849870184211e+25
4.066094373,-1.7961078741212604e+24,-1.9310672453532595e+25,4.056706699960477e+25
4.070849321,-1.7966920709549306e+24,-1.9221859526433631e+25,4.083327017195961e+25
4.075604217,-1.7972319446582e+24,-1.9133024743543144e+25,4.109711003449157e+25
4.080359165,-1.7977276992889804e+24,-1.904417005075178e+25,4.135858845656523e+25
4.085114061,-1.798179539284638e+24,-1.8955297383983476e+25,4.161770736275117e+25
4.089869009,-1.7985876694443014e+24,-1.8866408669241378e+25,4.187446873424786e+25
4.094623905,-1.7989522949111244e+24,-1.8777505822659688e+25,4.212887461029786e+25
4.099378852,-1.7992736211545343e+24,-1.8688590750561068e+25,4.238092708959749e+25
4.104133748,-1.799551853952513e+24,-1.8599665349519289e+25,4.263062833169852e+25
4.108888696,-1.7997871993739514e+24,-1.8510731506426681e+25,4.287798055840002e+25
4.113643644,-1.7999798637611087e+24,-1.8421791098565691e+25,4.312298605512851e+25
4.11839854,-1.8001300537122046e+24,-1.8332845993683953e+25,4.336564717230424e+25
4.123153488,-1.8002379760641775e+24,-1.8243898050072375e+25,4.360596632669176e+25
4.127908384,-1.8003038378756721e+24,-1.8154949116645742e+25,4.384394600273305e+25
4.132663332,-1.8003278464103232e+24,-1.8066001033025394e+25,4.407958875386106e+25
4.137418227,-1.800310209120407e+24,-1.797705562962362e+25,4.431289720379223e+25
4.142173175,-1.800251133630924e+24,-1.7888114727729584e+25,4.454387404779651e+25
4.146928123,-1.800150827724182e+24,-1.779918013959649e+25,4.477252205394363e+25
4.151683019,-1.8000094993249534e+24,-1.771025366852977e+25,4.499884406432402e+25
4.156437967,-1.7998273564862725e+24,-1.7621337108976016e+25,4.522284299624281e+25
4.161192863,-1.799604607375953e+24,-1.7532432246612294e+25,4.54445218433854e+25
4.165947811,-1.7993414602638784e+24,-1.7443540858435504e+25,4.566388367695294e+25
4.170702759,-1.799038123510137e+24,-1.7354664712851512e+25,4.588093164676629e+25
4.175457655,-1.798694805554055e+24,-1.7265805569763676e+25,4.609566898233663e+25
4.180212602,-1.7983117149041807e+24,-1.717696518066047e+25,4.630809899390123e+25
4.184967498,-1.797889060129248e+24,-1.7088145288701955e+25,4.6518225073422666e+25
4.189722446,-1.7974270498501352e+24,-1.6999347628805075e+25,4.672605069554982e+25
4.194477342,-1.7969258927328188e+24,-1.6910573927727586e+25,4.693157941853845e+25
4.19923229,-1.7963857974822987e+24,-1.6821825904150404e+25,4.713481488512933e+25
4.203987238,-1.7958069728374858e+24,-1.6733105268758025e+25,4.733576082338196e+25
4.208742134,-1.795189627567036e+24,-1.664441372431681e+25,4.7534421047461995e+25
4.213497082,-1.79453397046612e+24,-1.6555752965750973e+25,4.773079945838081e+25
4.21825203,-1.7938402103541258e+24,-1.6467124680216166e+25,4.792490004468638e+25
4.223006925,-1.7931085560732754e+24,-1.6378530547170667e+25,4.811672688310429e+25
4.227761873,-1.7923392164881292e+24,-1.6289972238444275e+25,4.8306284139127735e+25
4.232516769,-1.7915324004859333e+24,-1.6201451418305085e+25,4.849357606755535e+25
4.237271717,-1.7906883169777734e+24,-1.6112969743524397e+25,4.867860701297532e+25
4.242026665,-1.7898071749004939e+24,-1.6024528863439935e+25,4.886138141019482e+25
4.246781561,-1.7888891832193333e+24,-1.5936130420017542e+25,4.904190378461363e+25
4.251536509,-1.7879345509312144e+24,-1.5847776047911548e+25,4.922017875254107e+25
4.256291457,-1.786943487068637e+24,-1.5759467374523923e+25,4.939621102145572e+25
4.261046352,-1.7859162007041214e+24,-1.5671206020062292e+25,4.957000539020788e+25
4.2658013,-1.784852900955163e+24,-1.5582993597596867e+25,4.974156674916511e+25
4.270556196,-1.7837537969896517e+24,-1.5494831713116302e+25,4.9910900080300626e+25
4.275311144,-1.782619098031712e+24,-1.5406721965582513e+25,5.007801045722452e+25
4.280066092,-1.781449013367908e+24,-1.53186659469844e+25,5.024290304515766e+25
4.284820988,-1.7802437523537556e+24,-1.5230665242390412e+25,5.040558310084794e+25
4.289575936,-1.7790035244204738e+24,-1.514272142999979e+25,5.056605597242885e+25
4.294330884,-1.7777285390819124e+24,-1.5054836081192233e+25,5.072432709922021e+25
4.29908578,-1.7764190059416108e+24,-1.4967010760575936e+25,5.08804020114716e+25
4.303840727,-1.7750751346999427e+24,-1.4879247026033787e+25,5.103428633004905e+25
4.308595675,-1.7736971351612954e+24,-1.4791546428767682e+25,5.118598576606602e+25
4.313350571,-1.772285217241246e+24,-1.4703910513340924e+25,5.133550612046023e+25
4.318105519,-1.7708395909736837e+24,-1.4616340817718768e+25,5.1482853283518e+25
4.322860467,-1.7693604665178197e+24,-1.4528838873307263e+25,5.162803323434755e+25
4.327615363,-1.767848054165041e+24,-1.4441406204990582e+25,5.177105204030245e+25
4.332370311,-1.766302564345559e+24,-1.4354044331166986e+25,5.191191585635631e+25
4.337125259,-1.7647242076348062e+24,-1.4266754763783538e+25,5.205063092442976e+25
4.341880155,-1.7631131947595202e+24,-1.417953900836966e+25,5.218720357267134e+25
4.346635102,-1.7614697366034695e+24,-1.4092398564069578e+25,5.232164021469344e+25
4.35139005,-1.759794044212789e+24,-1.4005334923673654e+25,5.245394734876504e+25
4.356144946,-1.758086328800897e+24,-1.3918349573648405e+25,5.2584131556962326e+25
4.360899894,-1.7563468017529577e+24,-1.3831443994165127e+25,5.271219950427892e+25
4.365654842,-1.7545756746298736e+24,-1.3744619659126993e+25,5.283815793769681e+25
4.370409738,-1.75277315917178e+24,-1.3657878036194507e+25,5.296201368521962e+25
4.375164686,-1.7509394673010325e+24,-1.3571220586809285e+25,5.308377365487022e+25
4.379919634,-1.7490748111246706e+24,-1.3484648766216093e+25,5.3203444833655076e+25
4.38467453,-1.7471794029363543e+24,-1.3398164023483212e+25,5.332103428649839e+25
4.389429477,-1.7452534552177686e+24,-1.331176780152114e+25,5.343654915514896e+25
4.394184425,-1.7432971806394913e+24,-1.3225461537099583e+25,5.354999665706327e+25
4.398939321,-1.741310792061302e+24,-1.3139246660862564e+25,5.366138408426799e+25
4.403694269,-1.7392945025319075e+24,-1.3053124597341572e+25,5.377071880220502e+25
4.408449217,-1.7372485252880543e+24,-1.296709676496684e+25,5.387800824856233e+25
4.413204165,-1.7351730737529855e+24,-1.2881164576076929e+25,5.3983259932093465e+25
4.417959061,-1.7330683615341827e+24,-1.2795329436926817e+25,5.408648143142861e+25
4.422714009,-1.7309346024203564e+24,-1.2709592747694655e+25,5.418768039388019e+25
4.427468957,-1.7287720103776395e+24,-1.2623955902487348e+25,5.428686453424519e+25
4.432223852,-1.7265807995449411e+24,-1.2538420289345075e+25,5.4384041633606685e+25
4.4369788,-1.7243611842284076e+24,-1.2452987290244858e+25,5.447921953813661e+25
4.441733748,-1.722113378894948e+24,-1.2367658281103265e+25,5.457240615790179e+25
4.446488644,-1.7198375981647632e+24,-1.2282434631778228e+25,5.46636094656747e+25
4.451243592,-1.717534056802831e+24,-1.2197317706069954e+25,5.475283749574993e+25
4.45599854,-1.7152029697093152e+24,-1.2112308861721045e+25,5.484009834276783e+25
4.460753488,-1.7128445519088652e+24,-1.2027409450415984e+25,5.492540016054617e+25
4.465508384,-1.7104590185387896e+24,-1.194262081778012e+25,5.50087511609212e+25
4.470263332,-1.7080465848360914e+24,-1.1857944303378239e+25,5.5090159612598595e+25
4.47501828,-1.7056074661233534e+24,-1.1773381240712854e+25,5.5169633840014555e+25
4.479773175,-1.7031418777934666e+24,-1.1688932957222103e+25,5.5247182222207175e+25
4.484528123,-1.7006500352932178e+24,-1.1604600774277207e+25,5.532281319169802e+25
4.489283071,-1.698132154105759e+24,-1.1520386007179448e+25,5.539653523338424e+25
4.494038019,-1.6955884497319977e+24,-1.143628996515661e+25,5.546835688344111e+25
4.498792915,-1.6930191376709367e+24,-1.1352313951358966e+25,5.553828672823462e+25
4.503547863,-1.6904244333989998e+24,-1.1268459262854833e+25,5.560633340324381e+25
4.508302811,-1.687804552348371e+24,-1.1184727190625791e+25,5.567250559199213e+25
4.513057759,-1.6851597098843847e+24,-1.110111901956168e+25,5.5736812024986794e+25
4.517812707,-1.6824901212820205e+24,-1.101763602845556e+25,5.579926147866575e+25
4.522567602,-1.6797960017015647e+24,-1.0934279489998809e+25,5.5859862774351485e+25
4.52732255,-1.6770775661635093e+24,-1.0851050670776525e+25,5.5918624777210745e+25
4.532077498,-1.67433502952276e+24,-1.0767950831263495e+25,5.597555639521976e+25
4.536832394,-1.6715686064422244e+24,-1.0684981225820895e+25,5.603066657813491e+25
4.541587342,-1.6687785113658597e+24,-1.060214310269387e+25,5.60839643164687e+25
4.54634229,-1.6659649584912438e+24,-1.0519437704010048e+25,5.61354586404709e+25
4.551097238,-1.663128161741728e+24,-1.0436866265779123e+25,5.618515861911406e+25
4.555852134,-1.660268334738224e+24,-1.0354430017893498e+25,5.6233073359082985e+25
4.560607082,-1.6573856907706896e+24,-1.0272130184130042e+25,5.627921200376738e+25
4.56536203,-1.6544804427693737e+24,-1.0189967982153025e+25,5.63235837322572e+25
4.570116977,-1.6515528032759e+24,-1.0107944623518383e+25,5.63661977583397e+25
4.574871873,-1.6486029844142254e+24,-1.0026061313679433e+25,5.640706332949777e+25
4.579626821,-1.6456311978615128e+24,-9.944319251994093e+24,5.644618972590902e+25
4.584381769,-1.6426376548189627e+24,-9.86271963173359e+24,5.64835862594447e+25
4.589136717,-1.639622565982649e+24,-9.781263640092712e+24,5.651926227266734e+25
4.593891665,-1.6365861415143926e+24,-9.69995245820162e+24,5.655322713782616e+25
4.598646561,-1.633528591012712e+24,-9.618787261139261e+24,5.65854902558494e+25
4.603401509,-1.6304501234838886e+24,-9.537769217948448e+24,5.6616061055333155e+25
4.608156457,-1.6273509473131814e+24,-9.456899491652629e+24,5.664494899152622e+25
4.612911405,-1.624231270236227e+24,-9.376179239274339e+24,5.6672163545310595e+25
4.6176663,-1.6210912993106566e+24,-9.295609611855434e+24,5.66977142221767e+25
4.622421248,-1.6179312408879655e+24,-9.21519175447913e+24,5.672161055119257e+25
4.627176196,-1.614751300585678e+24,-9.134926806293864e+24,5.6743862083966465e+25
4.631931144,-1.6115516832598246e+24,-9.054815900538981e+24,5.676447839360268e+25
4.636686092,-1.6083325929777558e+24,-8.974860164572227e+24,5.6783469073650645e+25
4.641440988,-1.6050942329913148e+24,-8.895060719899021e+24,5.68008437370474e+25
4.646195936,-1.6018368057104067e+24,-8.815418682203328e+24,5.681661201505288e+25
4.650950884,-1.5985605126769754e+24,-8.735935161379971e+24,5.683078355617744e+25
4.655705832,-1.5952655545394117e+24,-8.656611261568112e+24,5.6843368025101645e+25
4.660460727,-1.5919521310274303e+24,-8.577448081185736e+24,5.685437510158734e+25
4.665215675,-1.5886204409274442e+24,-8.498446712964985e+24,5.686381447937915e+25
4.669970623,-1.5852706820584722e+24,-8.419608243988236e+24,5.6871695865095615e+25
4.674725571,-1.5819030512486114e+24,-8.340933755724837e+24,5.687802897710972e+25
4.679480519,-1.5785177443120994e+24,-8.262424324068442e+24,5.688282354441891e+25
4.684235415,-1.5751149560269916e+24,-8.184081019374834e+24,5.688608930550473e+25
4.688990363,-1.5716948801134757e+24,-8.105904906500116e+24,5.688783600718249e+25
4.693745311,-1.5682577092128565e+24,-8.027897044839162e+24,5.688807340344063e+25
4.698500259,-1.5648036348672474e+24,-7.950058488364189e+24,5.688681125426997e+25
4.703255207,-1.561332847500019e+24,-7.872390285663348e+24,5.68840593244833e+25
4.708010155,-1.5578455363970524e+24,-7.794893479979231e+24,5.687982738252614e+25
4.71276505,-1.5543418896888372e+24,-7.717569109247213e+24,5.687412519927969e+25
4.717519998,-1.5508220943334617e+24,-7.640418206133565e+24,5.686696254685688e+25
4.722274946,-1.547286336100534e+24,-7.563441798073268e+24,5.685834919739181e+25
4.727029894,-1.5437347995560864e+24,-7.486640907307518e+24,5.684829492182265e+25
4.731784842,-1.5401676680484993e+24,-7.410016550920865e+24,5.6836809488668175e+25
4.736539738,-1.53658512369548e+24,-7.333569740877903e+24,5.682390266279821e+25
4.741294686,-1.5329873473721074e+24,-7.257301484059446e+24,5.68095842041987e+25
4.746049634,-1.5293745186999439e+24,-7.181212782298072e+24,5.679386386673198e+25
4.750804582,-1.5257468160371957e+24,-7.105304632412973e+24,5.677675139689306e+25
4.75555953,-1.522104416469883e+24,-7.02957802624397e+24,5.6758256532562666e+25
4.760314425,-1.5184474958039814e+24,-6.954033950684586e+24,5.673838900175824e+25
4.765069373,-1.514776228558495e+24,-6.878673387714109e+24,5.671715852138403e+25
4.769824321,-1.511090787959423e+24,-6.803497314428581e+24,5.669457479598159e+25
4.774579269,-1.507391345934603e+24,-6.728506703070634e+24,5.667064751648176e+25
4.779334217,-1.503678073109402e+24,-6.653702521058081e+24,5.664538635895925e+25
4.784089165,-1.499951138803233e+24,-6.579085731011067e+24,5.661880098339096e+25
4.788844061,-1.4962107110268697e+24,-6.504657290777633e+24,5.659090103241876e+25
4.793599009,-1.492456956480521e+24,-6.430418153457579e+24,5.656169613011769e+25
4.798353957,-1.4886900405526445e+24,-6.356369267424568e+24,5.6531195880770316e+25
4.803108905,-1.4849101273194648e+24,-6.282511576346488e+24,5.649940986764825e+25
4.807863852,-1.481117379545163e+24,-6.20884601920414e+24,5.6466347651801495e+25
4.8126188,-1.477311958682707e+24,-6.13537353030824e+24,5.643201877085714e+25
4.817373696,-1.4734940248752996e+24,-6.062095039314787e+24,5.639643273782916e+25
4.822128644,-1.4696637369583952e+24,-5.989011471238772e+24,5.63595990399403e+25
4.826883592,-1.4658212524622414e+24,-5.91612374646626e+24,5.6321527137456765e+25
4.83163854,-1.4619667276149122e+24,-5.843432780764819e+24,5.628222646253693e+25
4.836393488,-1.4581003173457885e+24,-5.770939485292269e+24,5.62417064180947e+25
4.841148436,-1.4542221752894604e+24,-5.698644766603712e+24,5.619997637667828e+25
4.845903384,-1.4503324537900072e+24,-5.626549526656799e+24,5.615704567936469e+25
4.85065828,-1.446431303905629e+24,-5.554654662815178e+24,5.611292363467037e+25
4.855413227,-1.44251887541361e+24,-5.482961067850104e+24,5.606761951747878e+25
4.860168175,-1.4385953168155972e+24,-5.411469629940164e+24,5.602114256798607e+25
4.864923123,-1.4346607753431746e+24,-5.340181232669076e+24,5.5973501990665185e+25
4.869678071,-1.430715396963722e+24,-5.269096755021536e+24,5.592470695324895e+25
4.874433019,-1.4267593263865483e+24,-5.198217071377103e+24,5.587476658573256e+25
4.879187915,-1.422792707069282e+24,-5.127543051502131e+24,5.582368997939575e+25
4.883942863,-1.4188156812245178e+24,-5.057075560539726e+24,5.577148618584449e+25
4.888697811,-1.4148283898267084e+24,-4.986815458997684e+24,5.571816421607213e+25
4.893452759,-1.410830972619287e+24,-4.916763602734356e+24,5.566373303953985e+25
4.898207707,-1.4068235681220203e+24,-4.84692084294242e+24,5.560820158327691e+25
4.902962655,-1.402806313638605e+24,-4.7772880261305315e+24,5.555157873100041e+25
4.907717602,-1.39877934526452e+24,-4.7078659941028356e+24,5.549387332225462e+25
4.91247255,-1.3947427978951553e+24,-4.638655583936312e+24,5.543509415157002e+25
4.917227446,-1.3906968052342346e+24,-4.5696576279558944e+24,5.537524996764223e+25
4.921982394,-1.3866414998025463e+24,-4.5008729537073343e+24,5.531434947253101e+25
4.926737342,-1.3825770129470023e+24,-4.432302383927798e+24,5.525240132087935e+25
4.93149229,-1.378503474850037e+24,-4.363946736514217e+24,5.518941411915279e+25
4.936247238,-1.3744210145393592e+24,-4.295806824489418e+24,5.5125396424899524e+25
4.941002186,-1.3703297598980753e+24,-4.227883455966062e+24,5.506035674603155e+25
4.945757134,-1.3662298376752101e+24,-4.160177434108436e+24,5.499430354012706e+25
4.950512082,-1.3621213734966458e+24,-4.0926895570921247e+24,5.492724521375413e+25
4.955266977,-1.3580044918764993e+24,-4.0254206180616214e+24,5.485919012181548e+25
4.960021925,-1.353879316228955e+24,-3.9583714050859197e+24,5.479014656691416e+25
4.964776873,-1.3497459688805636e+24,-3.891542701112097e+24,5.4720122798740085e+25
4.969531821,-1.345604571083004e+24,-3.8249352839168897e+24,5.464912701347698e+25
4.974286769,-1.341455243026302e+24,-3.7585499260562767e+24,5.457716735323022e+25
4.979041717,-1.337298103852483e+24,-3.692387394813092e+24,5.450425190547571e+25
4.983796665,-1.3331332716696386e+24,-3.6264484521426696e+24,5.443038870253004e+25
4.988551613,-1.3289608635663835e+24,-3.560733854616556e+24,5.435558572104173e+25
4.993306561,-1.324780995626675e+24,-3.4952443533642944e+24,5.4279850881503935e+25
4.998061509,-1.3205937829449659e+24,-3.4299806940133125e+24,5.420319204778874e+25
5.002816405,-1.3163993396416659e+24,-3.3649436166269556e+24,5.412561702670317e+25
5.007571352,-1.3121977788788833e+24,-3.300133855640697e+24,5.404713356756676e+25
5.0123263,-1.307989212876417e+24,-3.235552139796529e+24,5.396774936181087e+25
5.017081248,-1.303773752927981e+24,-3.171199192075543e+24,5.38874720425998e+25
5.021836196,-1.299551509417651e+24,-3.107075729628701e+24,5.380630918447418e+25
5.026591144,-1.2953225918365281e+24,-3.0431824637058165e+24,5.372426830301661e+25
5.031346092,-1.291087108799613e+24,-2.9795200995827955e+24,5.364135685454053e+25
5.03610104,-1.2868451680628912e+24,-2.916089336487207e+24,5.355758223580282e+25
5.040855988,-1.2825968765406272e+24,-2.85289086752228e+24,5.347295178374024e+25
5.045610936,-1.2783423403228662e+24,-2.789925379589402e+24,5.338747277523006e+25
5.050365832,-1.274081664693138e+24,-2.727193553309179e+24,5.330115242687506e+25
5.05512078,-1.2698149541463452e+24,-2.6646960629411446e+24,5.321399789481383e+25
5.059875727,-1.2655423124068137e+24,-2.6024335763021997e+24,5.312601627455685e+25
5.064630675,-1.261263842446479e+24,-2.5404067546838677e+24,5.303721460084925e+25
5.069385623,-1.2569796465031868e+24,-2.478616252768428e+24,5.294759984756105e+25
5.074140571,-1.2526898260990958e+24,-2.4170627185439938e+24,5.285717892760557e+25
5.078895519,-1.2483944820591603e+24,-2.355746793218611e+24,5.276595869288682e+25
5.083650467,-1.2440937145296846e+24,-2.2946691111334368e+24,5.267394593427592e+25
5.088405415,-1.2397876229969353e+24,-2.2338302996750828e+24,5.258114738161705e+25
5.093160363,-1.235476306305803e+24,-2.1732309791872123e+24,5.2487569703762285e+25
5.097915311,-1.2311598626784961e+24,-2.1128717628814856e+24,5.239321950863473e+25
5.102670259,-1.2268383897332476e+24,-2.0527532567479187e+24,5.229810334331975e+25
5.107425207,-1.2225119845030033e+24,-1.992876059464728e+24,5.2202227694183865e+25
5.112180102,-1.2181807434540623e+24,-1.9332407623077285e+24,5.21055989870218e+25
5.11693505,-1.2138447625046396e+24,-1.8738479490593501e+24,5.200822358723156e+25
5.121689998,-1.2095041370433304e+24,-1.8146981959173603e+24,5.191010780001774e+25
5.126444946,-1.2051589619474536e+24,-1.7557920714033693e+24,5.1811257870623155e+25
5.131199894,-1.2008093316012478e+24,-1.697130136271198e+24,5.1711679984588176e+25
5.135954842,-1.1964553399138873e+24,-1.638712943415173e+24,5.161138026803748e+25
5.14070979,-1.1920970803372934e+24,-1.5805410377784196e+24,5.151036478799403e+25
5.145464738,-1.1877346458837084e+24,-1.5226149562612183e+24,5.140863955271996e+25
5.150219686,-1.1833681291430002e+24,-1.464935227629515e+24,5.130621051208451e+25
5.154974634,-1.1789976222996677e+24,-1.4075023724236588e+24,5.120308355795907e+25
5.159729582,-1.1746232171495079e+24,-1.350316902867443e+24,5.109926452463884e+25
5.16448453,-1.170245005115911e+24,-1.2933793227775265e+24,5.099475918929085e+25
