Time (s),X (m/s^2),Y (m/s^2),Z (m/s^2)
9.007860833,0.23555837968293244,-0.11698759196155167,0.03867660513557287
9.017788833,0.17741858443820066,-0.12775875850147358,-0.01901081393376476
9.027716833,0.1234388147110388,-0.13807930267324842,-0.07634315686533964
9.037644833,0.07521599427594886,-0.14783719211627072,-0.132642449481051
9.047572833,0.03421459757396735,-0.15697819160041532,-0.1872401526689215
9.057500833,0.0017321001613057163,-0.16551481775148746,-0.23948383069655216
9.067429833,-0.021131754164612288,-0.17353268814832112,-0.28874404617867305
9.077357833,-0.03350107000248782,-0.18119389567523694,-0.3344215068133144
9.087285833,-0.034744617034985575,-0.18873718204654463,-0.37595444652147286
9.097213833,-0.02449079855560972,-0.19647483002837257,-0.4128261725383535
9.107142833,-0.002636374034084757,-0.20478632776702857,-0.4445726576200627
9.117070833,0.030651302503808566,-0.21410897276408505,-0.4707900112385226
9.126998833,0.07493860348936585,-0.22492567672292235,-0.4911416315238315
9.136926833,0.12953642083256645,-0.23775031008293254,-0.505364823178225
9.146854833,0.19351718264991186,-0.2531109925433202,-0.5132766655279697
9.156782833,0.2657376863716358,-0.27153179807012745,-0.5147789277257234
9.166711833,0.34486718584840936,-0.29351340165470036,-0.509861851143829
9.176639833,0.42942002411379815,-0.31951324893264665,-0.4986066460740229
9.186567833,0.5177919729154612,-0.3499258748610464,-0.4811865747763467
9.196495833,0.6082993302308698,-0.3850640293688733,-0.4578665128410082
9.206424833,0.69921974158865,-0.42514128090764425,-0.42900089755138165
9.216352833,0.7888336536708082,-0.47025675646983606,-0.3950299909130147
9.226280833,0.8754652830063689,-0.5203826320997288,-0.35647441344251546
9.236208833,0.9575219914689845,-0.5753549072067273,-0.31392794889149706
9.246136833,1.033531004520638,-0.6348678804328742,-0.26804868134308835
9.256064833,1.1021724854485069,-0.6984726020677192,-0.21954859933957732
9.265993833,1.1623080843018412,-0.7655794213069568,-0.16918187669280757
9.275921833,1.2130042077495946,-0.8354645917806647,-0.11773210517294228
9.285849833,1.2535494006819277,-0.9072807591260619,-0.0659988008374241
9.295777833,1.2834653910292149,-0.9800710372195512,-0.014783526830566947
9.305706833,1.3025115298129322,-1.0527862857965338,0.035124030550550876
9.315634833,1.3106825633828638,-1.1243051281674001,0.08295972381413477
9.325562833,1.3081999013031564,-1.1934561886775843,0.1279980754180929
9.335490833,1.2954967765780698,-1.2590419813733413,0.16956464982655212
9.345418833,1.273197911733917,-1.3198638432879446,0.20704747164088974
9.355346833,1.2420944826730345,-1.3747472820116042,0.239907319175411
9.365275833,1.2031152992171297,-1.4225671044937147,0.26768674159059785
9.375203833,1.1572951953417843,-1.462271715776812,0.29001766709429927
9.385131833,1.1057416509549354,-1.4929060184353729,0.3066274930025409
9.395059833,1.049600663024743,-1.5136323961839808,0.31734357391154566
9.404987833,0.9900228583966286,-1.5237493196397787,0.32209604786150303
9.414916833,0.9281307998948019,-1.5227071656261657,0.3209189598278286
9.424844833,0.8649883812996718,-1.5101208965639707,0.3139496582811816
9.434772833,0.8015731324096605,-1.485779308892959,0.30142645730689205
9.444700833,0.7387521600763788,-1.4496506341606228,0.28368457675587366
9.454628833,0.6772623348804712,-1.4018843664172507,0.2611503964619083
9.464557833,0.617695198985029,-1.342809294471293,0.23433408577302445
9.474485833,0.5604869238273253,-1.2729278319330537,0.20382069418454205
9.484413833,0.5059134919523787,-1.1929068513058254,0.17025981156328537
9.494341833,0.4540911182895567,-1.103565328895542,0.13435392792748818
9.504269833,0.40498176272705794,-1.005859187499787,0.09684564588539826
9.514198833,0.3584034194025161,-0.9008637827529902,0.058503928683371835
9.524126833,0.31404470637814447,-0.7897545193832514,0.020109608101291143
9.534054833,0.2714831367997212,-0.6737861075058276,-0.017559570747214374
9.543982833,0.230206345446303,-0.5542709758972324,-0.05374403361825475
9.553910833,0.1896354840335173,-0.4325573467616963,-0.08771720836432101
9.563839833,0.14914998741943256,-0.31000744288689774,-0.11879969759621277
9.573767833,0.10811294516774843,-0.1879762434995003,-0.14637240068457025
9.583695833,0.06589637683730894,-0.06779113283452888,-0.1698882503438569
9.593623833,0.0219057903969209,0.049267298956604644,-0.18888232567146787
9.603551833,-0.024396512111183564,0.16198313230094513,-0.20298021927471063
9.613480083,-0.07346983920899736,0.2692215865935764,-0.21190463834681766
9.623409083,-0.1256756171057208,0.3699440616490005,-0.2154802762347863
9.633337083,-0.18126034275443353,0.4632217669084564,-0.2136369887372895
9.643265083,-0.24034129492203787,0.5482479436639401,-0.20641126470066054
9.653193083,-0.30289529840926477,0.6243486356902477,-0.1939459328748582
9.663121083,-0.36875082740399545,0.6909918898090345,-0.17648803204875468
9.673050083,-0.4375837244095335,0.7477951945385518,-0.15438479565082863
9.682978083,-0.5089167944536529,0.7945309147281291,-0.12807774285531423
9.692906083,-0.5821235047584913,0.8311294660286305,-0.09809489853663571
9.702834083,-0.6564359699729956,0.8576799976524984,-0.06504117490391073
9.712762083,-0.7309573212857936,0.874428410655251,-0.029586951075938676
9.722691083,-0.8046784340091323,0.8817726237042144,0.007545093242909288
9.732619083,-0.8764988196670538,0.8802550971570325,0.04559477756302627
9.742547083,-0.9452512833954319,0.8705527244482817,0.08378064244649065
9.752475083,-1.0097297252810427,0.8534642841988767,0.12131725164713239
9.762403083,-1.0687192552852771,0.8298957108630415,0.15743310030454238
9.772332083,-1.1210276317936188,0.8008434857707707,0.19138855895461376
9.782260083,-1.1655169554089642,0.7673764738865687,0.2224932549978407
9.792188083,-1.2011345670073097,0.7306165319826134,0.25012233989117383
9.802116083,-1.2269422032401234,0.6917181921475902,0.273731190911166
9.812044083,-1.2421426242620897,0.6518476926370164,0.2928682152261357
9.821973083,-1.2461031069826742,0.6121616077408191,0.3071855289558201
9.831901083,-1.238375352322408,0.5737853388839605,0.3164473582606348
9.841829083,-1.218711461146227,0.5377917748695723,0.320536053797495
9.851757083,-1.1870756913608185,0.505180496587782,0.3194556352245794
9.861685083,-1.1436517421396972,0.4768579673655311,0.31333280235154815
9.871613083,-1.0888453507404496,0.45361919314843535,0.30241537435914784
9.881542083,-1.0232820526116329,0.43613134614785887,0.28706815313012257
9.891470083,-0.9478000485593184,0.42491982300666253,0.26776625052135294
9.901398083,-0.8634382313034504,0.42035716360661907,0.245085967353506
9.911326083,-0.7714195315332298,0.4226552004468986,0.2196933566106096
9.921254083,-0.6731298421414076,0.43186074832885735,0.19233063845098983
9.931183083,-0.57009287237417,0.4478550815992292,0.16380065880233716
9.941111083,-0.4639413815252373,0.47035737873060146,0.13494960236612863
9.951039083,-0.35638535206450633,0.4989322371446785,0.10664819533701414
9.960967083,-0.2491777823234052,0.533001271730294,0.07977167195390433
9.970895083,-0.1440788953891382,0.5718587076309752,0.055178834037147795
9.980823083,-0.04281965417770915,0.6146907612862099,0.033690599032151915
9.990752083,0.05293447387607246,0.6605984712456623,0.01606850226266946
10.00068008,0.14161855393502326,0.7086234889583858,0.0029936858178327952
10.01060808,0.22180111749202314,0.7577761715633058,-0.004953037989699482
10.02053608,0.29221417172798125,0.807065146800186,-0.007309426811698195
10.03046408,0.3517795726744684,0.8555273689902405,-0.0037477314651433932
10.04039308,0.39963116469046583,0.9022575827775411,0.005912271678812797
10.05032108,0.4351321942464195,0.9464360784979198,0.021693622430592016
10.06024908,0.4578876029982503,0.9873536643561814,0.043456260902040245
10.07017708,0.46775090765037225,1.0244328860277765,0.07089510987954166
10.08010508,0.46482549791295436,1.0572446795703143,0.10354232034791859
10.09003308,0.44946033119136847,1.0855198402514528,0.1407737765374905
10.09996208,0.42224015730463654,1.1091549241297385,0.18181989756922828
10.10989008,0.3839705443663214,1.1282124599473222,0.22578070473064316
10.11981808,0.33565808142859666,1.1429156102968068,0.271645029005784
10.12974608,0.2784862045256622,1.1536376475225463,0.31831359526320435
10.13967408,0.21378714805888246,1.1608867688530913,0.36462552894310285
10.14960308,0.1430105936316586,1.165286848800437,0.4093876091534183
10.15953108,0.06768970228038199,1.1675547197953684,0.45140539054711026
10.16945908,-0.010594621837670671,1.1684745179923663,0.48951518024078866
10.17938708,-0.0902502120769877,1.1688695879137332,0.5226157893451305
10.18931508,-0.169709713392221,1.169572466216011,0.549698959507731
10.19924408,-0.24746508292563382,1.1713935900065364,0.5698773833976071
10.20917208,-0.32209946885160445,1.1750895762452438,0.5824093046450104
10.21910008,-0.3923156439806881,1.1813321257174594,0.5867188089951908
10.22902808,-0.4569604303541383,1.1906787293374264,0.5824111054064082
10.23895608,-0.5150447682762699,1.2035463328864167,0.5692823337631604
10.24888408,-0.565759216886399,1.2201889461011528,0.5473237004756775
10.25881308,-0.608484736513573,1.240679924813121,0.516719994033389
10.26874108,-0.6427986400773357,1.2648994019538866,0.477842730464175
10.27866908,-0.6684756503475419,1.2925271639314344,0.4312383130296091
10.28859708,-0.6854840790044139,1.323041174514454,0.3776116847100524
10.29852508,-0.6939772538080609,1.3557218956227872,0.3178060388054758
10.30845408,-0.6942804551902508,1.389662481240108,0.2527792467512302
10.31838208,-0.6868737706373739,1.4237847864616306,0.18357775430478482
10.32831008,-0.6723714201061572,1.4568609376731505,0.11130877104162812
10.33823808,-0.651498237322113,1.487539981806365,0.037111624676097826
10.34816608,-0.6250641024499634,1.5143789104257965,-0.03787082849809421
10.35809408,-0.5939372048376994,1.5358771660020059,-0.11251985101563775
10.36802308,-0.5590170639214356,1.5505135948337982,-0.18576667576005274
10.37795108,-0.5212082447166996,1.5567847127868468,-0.25661577081083625
10.38787908,-0.48139566325477184,1.5532430908973163,-0.32416482209188424
10.39780708,-0.44042227977363174,1.5385346454900415,-0.3876208652264589
10.40773508,-0.399069822919167,1.511433635644156,-0.4463121547245011
10.41766308,-0.35804298758588377,1.4708742384761813,-0.4996955409719557
10.42759208,-0.3179573249649888,1.4159776992333284,-0.5473593244068441
10.43752008,-0.27933082426251654,1.346074242904647,-0.5890217573379694
10.44744808,-0.2425789969215231,1.2607191814464116,-0.6245255506680619
10.45737608,-0.2080131330213304,1.159702939316953,-0.6538289014968666
10.46730408,-0.1758413137876377,1.0430550256196025,-0.6769936794363763
10.47723308,-0.14617173492013164,0.9110422767415104,-0.6941714911504461
10.48716108,-0.11901791815292266,0.7641619522522439,-0.7055883861255999
10.49708908,-0.09430545166484489,0.6031304637024881,-0.7115289779813329
10.50701708,-0.07187998383113477,0.4288686300105629,-0.7123207413651044
10.51694508,-0.05151627397485949,0.2424843756672736,-0.7083192080715043
10.52687308,-0.03292815710905907,0.045253729569712305,-0.6998947253398979
10.53680208,-0.015779301556196012,-0.1613991299745623,-0.6874213469728998
10.54673008,0.0003053601515103902,-0.37592217376591563,-0.6712682956694551
10.55665808,0.015727650191044572,-0.5966556901331873,-0.6517942603807213
10.56658608,0.030903739953912598,-0.8218519807458115,-0.6293445836580014
10.57651408,0.04625145351316903,-1.0496943708893436,-0.6042511685994988
10.58644308,0.06217743510571743,-1.278315456123466,-0.5768347167728702
10.59637108,0.0790643755365958,-1.5058146481464034,-0.5474087237445254
10.60629908,0.09725854716303506,-1.7302752198743252,-0.5162845327085543
10.61622633,0.11705795835945144,-1.9497811645260925,-0.4837766959775879
10.62615433,0.13870149525069617,-2.1624342544349746,-0.45020792017599565
10.63608233,0.16235945907873817,-2.3663716953061025,-0.4159129602690595
10.64601133,0.18812592030238262,-2.5597847130931406,-0.38124096076522557
10.65593933,0.2160132867087505,-2.740938286779371,-0.34655590415260135
10.66586733,0.24594941821249433,-2.908192063130111,-0.3122350068720888
10.67579533,0.2777775165371649,-3.0600222769436645,-0.2786650913650234
10.68572333,0.311258880905744,-3.195044274689273,-0.24623714119704634
10.69565133,0.3460784660531274,-3.312035026069494,-0.21533938836119093
10.70558033,0.3818530266734374,-3.409954833821918,-0.18634936055074355
10.71550833,0.4181415033552809,-3.487967341346045,-0.15962532155055698
10.72543633,0.4544572145351029,-3.5454569061927286,-0.13549748958043215
10.73536433,0.49028137400879346,-3.5820424571980074,-0.11425935549230519
10.74529233,0.5250774509883364,-3.5975870733981687,-0.09615937660779025
10.75522133,0.5583059166984002,-3.5922026961899363,-0.0813933001614827
10.76514933,0.5894389593856662,-3.5662495935465066,-0.07009736384555736
10.77507733,0.6179747815391449,-3.520330418420526,-0.062342618992794745
10.78500533,0.6434511116255908,-3.455278926448149,-0.05813061513264507
10.79493333,0.6654575709126115,-3.3721436280848636,-0.05739066241340208
10.80486133,0.6836465421806017,-3.272166839593412,-0.059978842640494474
10.81479033,0.6977421988511853,-3.1567597608338116,-0.06567887242547048
10.82471833,0.7075473768405959,-3.027474340181458,-0.07420484518096264
10.83464633,0.7129480146976496,-2.885972782249912,-0.0852058060098402
10.84457433,0.7139149569864156,-2.7339956081243857,-0.09827205253073121
10.85450233,0.7105030128695754,-2.573329189036183,-0.11294300622149477
10.86443033,0.7028472803395552,-2.405773644717563,-0.12871646027604214
10.87435933,0.6911568752097696,-2.2331119333576854,-0.14505897749542845
10.88428733,0.6757063307168935,-2.0570808716977442,-0.16141718153307832
10.89421533,0.6568250482308243,-1.8793447232794038,-0.17722965428313803
10.90414333,0.6348852736643585,-1.7014718894335157,-0.19193912202306934
10.91407133,0.6102891396132099,-1.5249151354367225,-0.20500458872333832
10.92399933,0.5834553423341337,-1.3509956824501004,-0.2159130662738119
10.93392833,0.5548060105031737,-1.1808913900937492,-0.22419056663010808
10.94385633,0.5247542706096856,-1.0156291402246203,-0.22941206128683297
10.95378433,0.49369293089665506,-0.8560814081839319,-0.23121017170964317
10.96371233,0.4619846068525727,-0.7029668765981852,-0.22928241834837437
10.97364033,0.4299535131368167,-0.5568548151242705,-0.2233969140643066
10.98356833,0.3978790642438261,-0.41817282418553975,-0.21339643325655977
10.99349733,0.36599136874652183,-0.28721742761508734,-0.19920082090925734
11.00342533,0.3344686710699348,-0.16416690380115287,-0.18080773416025103
11.01335333,0.3034367824421764,-0.04909567418427055,-0.15829174486149805
11.02328133,0.2729705333465839,0.058010470282321015,-0.1318018831247507
11.03320933,0.2430972551147968,0.15723902274362872,-0.10155776540751274
11.04313733,0.21380224338798293,0.248735967854791,-0.06784451028335234
11.05306633,0.18503606539735026,0.33269213220502325,-0.0310066816138492
11.06299433,0.15672345357947062,0.4093311519419601,0.008558497162696573
11.07292233,0.12877339934282403,0.4788994013487465,0.05040843773635797
11.08285033,0.1010899485706129,0.5416580963956479,0.09406280941079721
11.09277833,0.07358312803736343,0.597877669993619,0.1390113496764559
11.10270633,0.04617941323861406,0.6478344149116863,0.18472176021556005
11.11263533,0.018831185270943657,0.6918093036418087,0.23064761434607342
11.12256333,-0.008475290313633166,0.7300888172629616,0.27623622095084477
11.13249133,-0.035713709959496215,0.7629675445261493,0.32093640091289927
11.14241933,-0.06281361334858386,0.7907522472394131,0.36420613765443954
11.15234733,-0.0896583701745569,0.8137670290361428,0.40552006458855355
11.16227633,-0.11608521861066848,0.8323591928824049,0.4443767481508766
11.17220433,-0.14188720176762684,0.8469053307835196,0.48030571480442846
11.18213233,-0.1668167780741986,0.8578171618327618,0.51287415576414
11.19206033,-0.19059084052829028,0.8655466281807629,0.5416932289014038
11.20198833,-0.21289686523900272,0.8705897781111851,0.5664238688451637
11.21191633,-0.23339991772632174,0.8734890136778866,0.5867820162620672
11.22184433,-0.25175027186847626,0.8748333556985283,0.6025431835730206
11.23177333,-0.2675914360254243,0.8752564754678084,0.6135462820371307
11.24170133,-0.2805684266963697,0.8754323514976718,0.6196966399351266
11.25162933,-0.2903361737109336,0.8760685220590945,0.6209681423319436
11.26155733,-0.29656797455448225,0.8778970142137725,0.6174044218258766
11.27148533,-0.2989639332676498,0.8816631338490137,0.609119030464782
11.28141433,-0.29725931851085985,0.88811239564556,0.5962945280692481
11.29134233,-0.2912327560727508,0.8979759530513495,0.579180432252542
11.30127033,-0.28071413724209493,0.9119549534638479,0.5580899913407275
11.31119833,-0.2655920841472708,0.9307042924779336,0.5333957653522201
11.32112633,-0.2458207777961296,0.9548162734505973,0.5055240336727279
11.33105433,-0.22142593506208733,0.9848046929710217,0.4749480888902682
11.34098233,-0.19250972236288733,1.0210898650172102,0.442180518734595
11.35091133,-0.15925441323536083,1.0639850630946666,0.4077646161873234
11.36083933,-0.12192462710633034,1.1136848006874098,0.3722650882006946
11.37076733,-0.08086802219813394,1.1702552907929429,0.33625825603909343
11.38069533,-0.03651435569321922,1.233627333226289,0.30032195700551195
11.39062333,0.010627132644667765,1.303591782309187,0.26502536930392073
11.40055133,0.05997201828227178,1.3797976549529816,0.23091898667133096
11.41048033,0.11086665088620404,1.4617528575352061,0.1985249615764557
11.42040833,0.16259574591015907,1.5488274484153501,0.1683280086404485
11.43033633,0.21439157986398114,1.6402593187553862,0.14076700978803205
11.44026433,0.26544475040858756,1.7351621663239223,0.11622739562479001
11.45019233,0.3149164270645314,1.8325356433675946,0.09503431538224359
11.46012033,0.3619519511920588,1.9312775644097895,0.07744657979701824
11.47004933,0.4056955512333709,2.0301980518111953,0.06365138135315095
11.47997733,0.44530583817677466,2.128035474115925,0.05375984731498701
11.48990533,0.4799716589268321,2.2234739993811776,0.047803528007338475
11.49983333,0.5089278303574354,2.3151625480975877,0.0457319433661901
11.50976133,0.5314702631670644,2.401734889503478,0.04741131049404337
11.51968933,0.5469700103421096,2.481830580377754,0.052624575126283955
11.52961833,0.5548858307223452,2.55411639749031,0.06107288324900004
11.53954633,0.5547749328650096,2.617307866878966,0.07237864798813755
11.54947433,0.546301650762334,2.6701904491065953,0.08609037250732796
11.55940233,0.5292438982647972,2.711639904664681,0.10168936872524902
11.56933033,0.5034973515455736,2.7406413449659524,0.11859846362404025
11.57925833,0.46907741380355183,2.756306480269035,0.13619271722657292
11.58918733,0.4261191157853867,2.7578886109664476,0.15381209703113025
11.59911533,0.3748751921211006,2.74479496915149,0.1707759671640874
11.60904333,0.3157126418276156,2.7165960923156787,0.18639915634427506
11.61897233,0.24910812699879087,2.6730319893064625,0.20000926436008384
11.62890033,0.17564257992459573,2.6140149360054954,0.2109647534062308
11.63882833,0.09599536784930555,2.5396288185305433,0.21867325840426063
11.64875733,0.010938300827464515,2.450125033202043,0.22260945679907262
11.65868533,-0.07867033884463183,2.345915061548392,0.22233178101659162
11.66861333,-0.1718917109949806,2.227559965732214,0.2174972476320684
11.67854133,-0.26771240648041816,2.095757187078045,0.20787372104201957
11.68846933,-0.36505080414586916,1.951325162272903,0.19334902442162105
11.69839733,-0.46276422165395764,1.7951863790251499,0.17393644839838718
11.70832633,-0.559657363350966,1.6283495582783123,0.14977637230846166
11.71825433,-0.6544925745681923,1.4518916630690484,0.12113388400115108
11.72818233,-0.7460023409864854,1.2669403933551846,0.08839244369907685
11.73811033,-0.8329043296855896,1.0746577384643305,0.05204377542370456
11.74803833,-0.9139190730231803,0.8762250366191575,0.012674286942199194
11.75796633,-0.9877901735660711,0.6728298489828798,-0.029051575555119724
11.76789533,-1.053306685138515,0.46565480849536967,-0.07241053108596227
11.77782333,-1.1093271243324314,0.2558684649349323,-0.11664162189551526
