Time (s),Acceleration x (m/s^2),Acceleration y (m/s^2),Acceleration z (m/s^2)
4.00334861,1.39022994,-7.896913052,-1.590628862
4.008112152,1.53918314,-8.291728973,-1.509272933
4.012902256,1.645663738,-8.667402267,-1.399203062
4.017679079,1.68574357,-9.004191399,-1.30289197
4.022455902,1.582253933,-9.303893089,-1.259222865
4.027232725,1.406381488,-9.535398483,-1.296311617
4.032009548,1.091725349,-9.632308006,-1.390828133
4.036786371,0.6819544435,-9.628120422,-1.585843205
4.041563194,0.261415869,-9.537791252,-1.823330879
4.046340016,-0.1256231815,-9.427721024,-2.061416626
4.051116839,-0.4085744619,-9.322437286,-2.328814745
4.055893662,-0.6580262184,-9.245866776,-2.625524759
4.060670485,-0.8781659007,-9.163912773,-2.868994236
4.065447308,-1.070189953,-9.096913338,-3.107678413
4.070224131,-1.229312658,-9.058628082,-3.380460262
4.075000954,-1.411765337,-9.005986214,-3.647858143
4.079764444,-1.54217422,-8.962915421,-3.935595036
4.0845546,-1.610369682,-8.924032211,-4.218546391
4.089331423,-1.526022673,-8.904889107,-4.400999069
4.094094912,-1.445863128,-8.913862228,-4.473381996
4.098885069,-1.374078393,-8.88993454,-4.440480709
4.103661891,-1.307079315,-8.846264839,-4.316053867
4.108438714,-1.234696507,-8.783453941,-4.138985157
4.113215537,-1.090528965,-8.72064209,-3.914059639
4.11799236,-1.008574724,-8.687142372,-3.678964853
4.122769183,-1.087537885,-8.668000221,-3.419941664
4.127546006,-1.129412293,-8.596215248,-3.126821041
4.132322829,-1.17068851,-8.577073097,-2.834298372
4.137099652,-1.258624673,-8.60159874,-2.511865616
4.141876475,-1.338186026,-8.659625053,-2.252244234
4.146653298,-1.389033556,-8.621339798,-2.017149448
4.151430121,-1.478166223,-8.61655426,-1.795813441
4.156206944,-1.581057549,-8.602795601,-1.574477315
4.160983766,-1.751546144,-8.578866959,-1.39561379
4.165760589,-1.883749604,-8.555537224,-1.284945726
4.17053736,-2.002792597,-8.536395073,-1.226321578
4.175314235,-2.140379906,-8.512466431,-1.211366415
4.180091058,-2.255235434,-8.498707771,-1.186840057
4.184867881,-2.264208317,-8.546564102,-1.13419795
4.189644652,-2.19242382,-8.575278282,-1.182652593
4.194421475,-2.13559413,-8.652446747,-1.278365493
4.199198298,-2.108076811,-8.72423172,-1.432104349
4.203975121,-2.113460541,-8.787042618,-1.629512191
4.208751944,-2.100300074,-8.873184204,-1.792224169
4.213528766,-2.06261301,-8.945567131,-1.92203474
4.218305589,-2.029711723,-9.012566566,-2.023131609
4.223082412,-1.968096614,-9.07059288,-2.07098794
4.227859235,-1.920240164,-9.132805824,-2.081157446
4.232636058,-1.905883193,-9.156734467,-2.033301115
4.237412881,-1.948355794,-9.166903496,-2.066202402
4.242189704,-2.00099802,-9.138189316,-2.094916344
4.246966527,-2.063211441,-9.099306107,-2.099701881
4.25174335,-2.08235383,-9.01316452,-2.046461582
4.256520173,-2.139781713,-8.858827591,-2.036890268
4.261296996,-2.092523336,-8.675776482,-2.032702923
4.266073819,-2.017149448,-8.531010628,-2.023131609
4.270850641,-2.012363911,-8.420342445,-1.98963201
4.275627464,-1.988435626,-8.391629219,-1.96151638
4.280404287,-1.893320918,-8.516654015,-2.043470621
4.28518111,-1.703091502,-8.776275635,-2.09671092
4.289957933,-1.65463686,-9.074181557,-2.125424623
4.294734756,-1.63489604,-9.363713264,-2.221137524
4.299511579,-1.639681697,-9.580264091,-2.307279348
4.304288402,-1.596610904,-9.725028992,-2.374876499
4.309065225,-1.672582984,-9.792626381,-2.393420935
4.313842048,-1.914856315,-9.774082184,-2.358724833
4.318618871,-2.120639086,-9.731011391,-2.482553482
4.323395694,-2.13559413,-9.716654778,-2.583052158
4.328172516,-1.973480463,-9.788438797,-2.613560438
4.332949339,-1.759322882,-9.908080101,-2.575275421
4.337726162,-1.435095429,-10.07617569,-2.605783939
4.342502985,-1.182652593,-10.22453117,-2.578266382
4.347279808,-0.8578268886,-10.34955597,-2.478964329
4.352056631,-0.5712863803,-10.44526863,-2.389233351
4.356833454,-0.3762713671,-10.4350996,-2.279761791
4.361610277,-0.285344094,-10.36750221,-2.160718918
4.3663871,-0.2895315289,-10.246665,-2.050050735
4.371163923,-0.3607180119,-10.12164021,-1.97826612
4.375940746,-0.485144794,-9.91047287,-1.963310957
4.380717569,-0.5527420044,-9.751350403,-2.011167526
4.385494391,-0.4959124923,-9.645467758,-1.996810555
4.390271162,-0.4959124923,-9.592227936,-1.996810555
4.395048037,-0.4528416991,-9.5252285,-1.973480463
4.399824808,-0.4097708762,-9.515059471,-1.829312921
4.404601631,-0.290129751,-9.510273933,-1.700698733
4.409378454,-0.1040877849,-9.447462082,-1.663609982
4.414155277,-0.171086818,-9.379864693,-1.624726534
4.4189321,-0.2895315289,-9.46720314,-1.619342685
4.423708923,-0.4175475538,-9.597611427,-1.599003673
4.428485746,-0.6071787477,-9.660423279,-1.574477315
4.433262569,-0.6628118753,-9.742377281,-1.414756417
4.438039391,-0.6287141442,-9.819545746,-1.285543919
4.442816214,-0.6466603279,-9.911071777,-1.155733347
4.447593037,-0.7603194118,-10.01755238,-1.102493048
4.45236986,-0.9116654396,-10.05643559,-1.039083242
4.457146683,-1.063609719,-10.09531879,-0.9954141974
4.461923506,-1.192822099,-10.02293587,-1.01874423
4.466700329,-1.344766378,-10.01874828,-0.9457631707
4.471477152,-1.430309772,-9.990034103,-0.9696913958
4.476253975,-1.535593987,-9.932606697,-1.060020447
4.481030798,-1.612762451,-9.937392235,-1.160519004
4.485807621,-1.618744493,-9.894321442,-1.342971683
4.490584444,-1.529611826,-9.821340561,-1.511665702
4.495361266,-1.430907965,-9.753743172,-1.704287887
4.500138089,-1.275374413,-9.714859962,-1.916052699
4.504914912,-1.080957651,-9.719047546,-2.084746838
4.509691735,-0.8721838593,-9.766903877,-2.234896421
4.514468558,-0.7202396393,-9.853045464,-2.312064886
4.519245381,-0.5970092416,-9.915258408,-2.384447813
4.524022204,-0.5682953596,-9.997213364,-2.399402857
4.528799027,-0.5874379873,-10.03071213,-2.398804665
4.53357585,-0.6819544435,-10.03071213,-2.345564365
4.538352673,-0.7764709592,-10.04088211,-2.234896421
4.543129496,-0.932602644,-10.0265255,-2.133201361
4.547906319,-1.083948612,-10.03190899,-2.008176327
4.552683141,-1.240678549,-9.984052658,-1.858624935
4.557459964,-1.387837172,-9.902696609,-1.69950223
4.562236787,-1.505683661,-9.826126099,-1.535593987
4.56701361,-1.642672777,-9.787840843,-1.39561379
4.571790433,-1.770688772,-9.769296646,-1.260419369
4.576567204,-1.860419631,-9.716654778,-1.116251707
4.581344079,-1.940579176,-9.659226418,-0.9816554785
4.586120902,-1.992024899,-9.630513191,-0.8087740541
4.590897673,-1.9812572,-9.591629982,-0.6646065116
4.595674548,-1.942373753,-9.548559189,-0.4923232496
4.600451319,-1.89391911,-9.572486877,-0.3385843933
4.605228141,-1.850250125,-9.625727654,-0.185443759
4.610004964,-1.768894196,-9.664012909,-0.1040877849
4.614781787,-1.606182218,-9.71186924,-0.0185443759
4.61955861,-1.405783296,-9.778269768,0.0382851623
4.624335433,-1.16769743,-9.811769485,0.09451649338
4.629112256,-0.9858429432,-9.845269203,0.1752742529
4.633889079,-0.8709874153,-9.873384476,0.2608176768
4.638665902,-0.7567301393,-9.892526627,0.3224328458
4.643442725,-0.6514459848,-9.940383911,0.37986058
4.648219548,-0.6275177598,-9.960124016,0.4372883439
4.652996371,-0.6221339107,-9.988838196,0.494716078
4.657773194,-0.5838487148,-9.993623734,0.5234299302
4.662550016,-0.5790630579,-9.945169449,0.5712863803
4.667326839,-0.5790630579,-9.911669731,0.5856433511
4.672103662,-0.5838487148,-9.863214493,0.5712863803
4.676880485,-0.6364908218,-9.829715729,0.5330012441
4.681657308,-0.6843472719,-9.796216011,0.4899304509
4.686434131,-0.7280163169,-9.777072906,0.3990031779
4.691210954,-0.7621139884,-9.757930756,0.2889333367
4.695987777,-0.7674978375,-9.781859398,0.1932204217
4.7007646,-0.7872386575,-9.824930191,0.05862415582
4.705541423,-0.8781659007,-9.859027863,-0.1034895778
4.710318246,-0.9649057388,-9.907482147,-0.2805584669
4.715095069,-0.9798609018,-9.940981865,-0.4827519655
4.719871891,-0.9098708034,-9.988838196,-0.7274180651
4.724648714,-0.9254241586,-9.993623734,-0.9433703423
4.729425537,-1.016949654,-9.993623734,-1.115653515
4.73420236,-1.103689432,-10.00319481,-1.264008522
4.738979183,-1.147358418,-9.988838196,-1.374078393
4.743756006,-1.14795661,-9.988838196,-1.445863128
4.748532829,-1.104885817,-9.974481583,-1.436291814
4.753309652,-1.009172916,-9.974481583,-1.369890928
4.758086475,-0.917647481,-9.97926712,-1.221535921
4.762863298,-0.8404789567,-9.969097137,-1.025324464
4.767640121,-0.7914260626,-9.954740524,-0.7423732281
4.772416891,-0.694516778,-9.921240807,-0.4552344978
4.777193714,-0.6125625968,-9.872786522,-0.1722832322
4.781970537,-0.5252245665,-9.80997467,0.1100698411
4.78674736,-0.4618147612,-9.76211834,0.3738785386
4.791524183,-0.3990031779,-9.718449593,0.5940182209
4.796301006,-0.3601198196,-9.66580677,0.7668996453
4.801077829,-0.3116651475,-9.602995872,0.8913264275
4.805854652,-0.2685943544,-9.573683739,0.9631111026
4.810631475,-0.1686939895,-9.525827408,0.9864411354
4.815408298,-0.111864455,-9.491728783,0.9816554785
4.820185121,-0.1549352705,-9.453444481,0.9672985673
4.824961944,-0.2267199457,-9.443872452,0.9577272534
4.829738766,-0.2931207716,-9.415159225,0.9152546525
4.834515589,-0.3457628787,-9.415159225,0.8673982024
4.839292412,-0.3702892959,-9.400801659,0.8243274093
4.844069235,-0.4223332107,-9.434301376,0.7860422134
4.848846058,-0.5084748268,-9.477970123,0.733400166
4.853622881,-0.584446907,-9.531210899,0.6717849374
4.858399704,-0.665802896,-9.584450722,0.6000002623
4.863176527,-0.7657032609,-9.637691498,0.5623133183
4.86795335,-0.8464609981,-9.680762291,0.5144568682
4.872730173,-0.8895317912,-9.729216576,0.4432703853
4.877506996,-0.9230313301,-9.772886276,0.3954139352
4.882283819,-0.932602644,-9.811170578,0.3475574851
4.887060641,-0.8805587292,-9.859027863,0.2943171859
4.891837464,-0.7860422134,-9.859027863,0.2362912297
4.896614287,-0.7381857634,-9.854242325,0.2267199457
4.90139111,-0.7812566161,-9.859027863,0.2410768867
4.906167933,-0.799800992,-9.878170013,0.2841476798
4.910944756,-0.775872767,-9.868598938,0.2985046208
4.915721579,-0.7519445419,-9.892526627,0.2937189937
4.920498402,-0.7328019142,-9.916455269,0.2841476798
4.925275225,-0.7190431952,-9.921240807,0.2410768867
4.930052048,-0.6813562512,-9.916455269,0.1639083475
4.934828819,-0.6580262184,-9.892526627,0.1010967568
4.939605694,-0.6203392744,-9.882357597,0.03409772366
4.944382516,-0.5880361795,-9.87757206,-0.04785645381
4.949159287,-0.5455635786,-9.83868885,-0.1100698411
4.95393611,-0.5222335458,-9.805189133,-0.1872383654
4.958712985,-0.5132604837,-9.786046028,-0.2446661144
4.963489756,-0.494716078,-9.78126049,-0.2979064286
4.968266579,-0.4899304509,-9.786046028,-0.3170489967
4.973043402,-0.494716078,-9.79083252,-0.3266202807
4.977820225,-0.494716078,-9.824331284,-0.3218346536
4.982597048,-0.498903513,-9.843474388,-0.3170489967
4.987373871,-0.498903513,-9.872786522,-0.2781656384
4.992150694,-0.4983053207,-9.911071777,-0.2494517565
4.996927516,-0.4887340367,-9.930213928,-0.2159522474
5.001704339,-0.4791627228,-9.944570541,-0.1872383654
5.006481162,-0.4456632137,-9.944570541,-0.1537388563
5.011257985,-0.4217349887,-9.944570541,-0.1202393398
5.016034808,-0.4019941986,-9.949356079,-0.07238288224
5.020811631,-0.3595215976,-9.905687332,-0.03469592705
5.025588454,-0.3212364316,-9.867402077,0.01794617064
5.030365277,-0.2925225794,-9.829116821,0.06101697683
5.0351421,-0.2638086975,-9.780662537,0.1184447184
5.039918923,-0.2632105052,-9.742377281,0.17587246
5.044695746,-0.2392822653,-9.70827961,0.233300209
5.049472569,-0.2536391914,-9.660423279,0.3200400174
5.054249391,-0.2673979402,-9.631709099,0.3822534084
5.059026214,-0.2859423161,-9.607182503,0.4396811724
5.063803037,-0.3050848842,-9.598209381,0.4929214716
5.06857986,-0.337986201,-9.588638306,0.5503492355
5.073356683,-0.3756731451,-9.593423843,0.589232564
5.078133506,-0.3894318938,-9.631709099,0.5988038778
5.082910329,-0.4372883439,-9.651450157,0.6179464459
5.087687152,-0.4462614357,-9.661021233,0.6370890141
5.092463975,-0.484546572,-9.689735413,0.6424728632
5.097240798,-0.4983053207,-9.719047546,0.6664010882
5.102017569,-0.5030909777,-9.747760773,0.6424728632
5.106794444,-0.5174478889,-9.786046028,0.6329016089
5.111571266,-0.5126622319,-9.834501266,0.6137589812
5.116348089,-0.5174478889,-9.87757206,0.5659025311
5.12112486,-0.5126622319,-9.911669731,0.5180460811
5.125901683,-0.5036891699,-9.945169449,0.4456632137
5.130678506,-0.494716078,-9.9643116,0.3786641955
5.135455329,-0.494716078,-9.988240242,0.2925225794
5.140232152,-0.5192425251,-9.997811317,0.2111666054
5.145008975,-0.5527420044,-10.01755238,0.1298106313
5.149785798,-0.5485545993,-10.03190899,0.0580259487
5.154562621,-0.5300102234,-10.03669453,-0.0
5.159339444,-0.5114658475,-10.0265255,-0.0765703246
5.164116266,-0.5024927258,-10.00259686,-0.1393819153
5.168893089,-0.5168496966,-9.988240242,-0.1920240223
5.173669912,-0.5359922647,-9.969097137,-0.2350948304
5.178446735,-0.5557330847,-9.954740524,-0.2685943544
5.183223558,-0.5748756528,-9.959526062,-0.3020938635
5.188000381,-0.5796613097,-9.959526062,-0.3164508045
5.192777204,-0.6035895348,-9.9643116,-0.3260220885
5.197554027,-0.613160789,-9.9643116,-0.3302095234
5.20233085,-0.6227321029,-9.9643116,-0.3397808075
5.207107673,-0.6035895348,-9.9643116,-0.3403790295
5.211884496,-0.6323033571,-9.969097137,-0.3397808075
5.216661319,-0.626919508,-9.973882675,-0.3302095234
5.221438141,-0.6317051649,-9.949954987,-0.3110669553
5.226214964,-0.6227321029,-9.916455269,-0.3014956415
5.230991787,-0.5796613097,-9.901499748,-0.2781656384
5.23576861,-0.5509474277,-9.863214493,-0.2398804724
5.240545433,-0.5126622319,-9.833903313,-0.2111666054
5.245322256,-0.4791627228,-9.795618057,-0.1537388563
5.250099079,-0.4360919297,-9.766305923,-0.09152546525
5.254875902,-0.4025924206,-9.747162819,-0.01495514158
5.259652725,-0.3547359705,-9.698708534,0.04187439755
5.264429548,-0.3355933726,-9.665208817,0.1184447184
5.269206371,-0.3397808075,-9.631709099,0.2051845491
5.273983141,-0.3535395563,-9.602995872,0.2865405083
5.278760016,-0.4007977843,-9.598209381,0.3876372576
5.283536787,-0.4857429862,-9.60778141,0.4504488707
5.288313662,-0.546759963,-9.617950439,0.5419743061
5.293090433,-0.6227321029,-9.632308006,0.5952146053
5.297867256,-0.6699903607,-9.647262573,0.6526423693
5.302644079,-0.7076773047,-9.666405678,0.6915257573
5.307420902,-0.6975077987,-9.675976753,0.7298108935
5.312197725,-0.6598208547,-9.685547829,0.7393822074
5.316974548,-0.6071787477,-9.70468998,0.7435696125
5.321751371,-0.5976074338,-9.728618622,0.7339983582
5.326528194,-0.5599204898,-9.738189697,0.7244270444
5.331305016,-0.5312066078,-9.742975235,0.6999006271
5.336081839,-0.4983053207,-9.742975235,0.656829834
5.340858662,-0.4462614357,-9.742975235,0.589232564
5.345635485,-0.4037888348,-9.757332802,0.5174478889
5.350412308,-0.3852444589,-9.78126049,0.4259224236
5.355189131,-0.337986201,-9.814760208,0.3493520916
5.359965954,-0.3529413342,-9.833903313,0.2913261652
5.364742777,-0.3912265003,-9.857831001,0.2153540403
5.3695196,-0.4438686073,-9.857831001,0.1722832322
5.374296423,-0.5204389095,-9.863214493,0.1196411327
5.379073246,-0.5820540786,-9.863214493,0.08195417374
5.383850069,-0.6681957245,-9.858428955,0.03888336942
5.388626891,-0.7112665176,-9.844072342,-0.004187439568
5.393403714,-0.7351947427,-9.844072342,-0.04187439755
5.398180537,-0.7357929349,-9.834501266,-0.08075776696
5.40295736,-0.7214360237,-9.84885788,-0.1142572835
5.407734183,-0.6693921089,-9.844072342,-0.128614217
5.412511006,-0.6406782866,-9.844072342,-0.1435693651
5.417287829,-0.5934200287,-9.844072342,-0.1339980662
5.422064652,-0.5503492355,-9.853643417,-0.1052841991
5.426841475,-0.5503492355,-9.833903313,-0.08135596663
5.431618298,-0.5401797295,-9.829116821,-0.05264209956
5.436395069,-0.5449653864,-9.824331284,-0.009571290575
5.441171891,-0.5635097623,-9.814760208,0.0239282269
5.445948714,-0.5874379873,-9.805189133,0.06281159073
5.450725537,-0.6107679605,-9.795618057,0.09152546525
5.45550236,-0.6299105883,-9.78126049,0.1298106313
5.460279183,-0.6580262184,-9.76211834,0.1686939895
5.465056006,-0.7004988194,-9.752547264,0.1974078715
5.469832829,-0.7292127013,-9.742975235,0.2069791555
5.474609652,-0.7435696125,-9.719047546,0.2261217386
5.479386475,-0.7339983582,-9.70468998,0.2356930375
5.484163298,-0.7292127013,-9.695118904,0.2548356056
5.488940121,-0.7196413875,-9.680762291,0.2500499785
5.493716944,-0.6957131624,-9.695118904,0.2691925466
5.498493766,-0.6765705943,-9.709476471,0.2739782035
5.503270589,-0.6574280262,-9.714262009,0.2883351147
5.508047412,-0.6287141442,-9.723833084,0.2931207716
5.512824235,-0.6191428304,-9.76211834,0.2787638307
5.517601058,-0.6005984545,-9.776474953,0.2883351147
5.522377881,-0.5766702294,-9.786046028,0.2877369225
5.527154704,-0.5575276613,-9.805787086,0.2733799815
5.531931527,-0.5431707501,-9.8201437,0.2446661144
5.53670835,-0.5198407173,-9.834501266,0.2207378894
5.541485173,-0.5150550604,-9.858428955,0.2111666054
5.546261996,-0.4719842672,-9.863214493,0.1818545163
5.551038819,-0.4725824594,-9.882357597,0.1627119333
5.555815641,-0.4677968323,-9.87757206,0.1531406492
5.560592464,-0.4438686073,-9.896714211,0.1339980662
5.565369287,-0.4390829504,-9.891928673,0.1483550072
5.57014611,-0.4295116663,-9.901499748,0.1435693651
5.574922933,-0.4247260094,-9.920642853,0.1579262912
5.579699756,-0.4199403822,-9.920642853,0.1674975902
5.584476527,-0.4390829504,-9.930213928,0.1674975902
5.58925335,-0.4199403822,-9.944570541,0.1866401732
5.594030173,-0.4767699242,-9.940383911,0.2009970993
5.598806996,-0.4959124923,-9.926026344,0.2159522474
5.603583819,-0.5192425251,-9.901499748,0.2111666054
5.608360641,-0.5431707501,-9.872786522,0.2111666054
5.613137464,-0.5479564071,-9.84885788,0.2159522474
5.617914287,-0.5389832854,-9.8201437,0.2255235314
5.62269111,-0.5150550604,-9.800403595,0.2255235314
5.627467933,-0.5150550604,-9.800403595,0.2350948304
5.632244756,-0.4959124923,-9.805189133,0.2685943544
5.637021579,-0.471386075,-9.80997467,0.3068794906
5.641798402,-0.471386075,-9.80997467,0.3355933726
5.646575225,-0.4666004181,-9.805189133,0.3690928817
5.651352048,-0.471386075,-9.814760208,0.3978067636
5.656128871,-0.4803591371,-9.815358162,0.4313062727
5.660905694,-0.5042873621,-9.8201437,0.4408775866
5.665682516,-0.5324030519,-9.8201437,0.4366901219
5.670459339,-0.5611169338,-9.815358162,0.4319044948
5.675236162,-0.5850451589,-9.810572624,0.4031906128
5.680012985,-0.6233302951,-9.810572624,0.3553341627
5.684789808,-0.643071115,-9.805787086,0.3074777126
5.689566631,-0.6765705943,-9.810572624,0.2548356056
5.694343454,-0.6765705943,-9.8201437,0.2069791555
5.699120277,-0.6771687865,-9.839286804,0.1543370634
5.7038971,-0.6532405615,-9.863214493,0.1058823988
5.708673923,-0.6346961856,-9.863214493,0.09152546525
5.713450746,-0.6059823632,-9.87757206,0.0580259487
5.718227516,-0.5587241054,-9.872786522,0.04307080805
5.723004339,-0.5204389095,-9.882357597,0.0239282269
5.727781162,-0.4971089065,-9.882357597,0.04307080805
5.732557985,-0.4683950245,-9.882357597,0.02871387079
5.737334808,-0.4492524564,-9.872786522,0.0568295382
5.742111631,-0.4492524564,-9.872786522,0.08135596663
5.746888454,-0.4486542344,-9.863214493,0.1244267747
5.751665277,-0.4677968323,-9.858428955,0.1435693651
5.7564421,-0.4863412082,-9.84885788,0.1962114573
5.761218923,-0.5054838061,-9.824331284,0.2159522474
5.765995746,-0.5198407173,-9.814760208,0.2398804724
5.770772569,-0.5294120312,-9.78126049,0.2590230405
5.775549391,-0.5150550604,-9.79083252,0.2733799815
5.780326214,-0.5150550604,-9.786046028,0.2733799815
5.785103037,-0.5006981492,-9.800403595,0.2685943544
5.78987986,-0.4863412082,-9.805189133,0.2584248483
5.794656683,-0.4767699242,-9.80997467,0.2488535494
5.799433506,-0.4815555513,-9.814760208,0.2344966233
5.804210329,-0.4719842672,-9.814760208,0.2344966233
5.808987152,-0.4911268353,-9.795618057,0.2201396823
5.813763975,-0.5198407173,-9.79083252,0.1920240223
5.818540798,-0.5389832854,-9.776474953,0.1872383654
5.823317621,-0.5772684813,-9.79083252,0.1585244983
5.828094444,-0.5964110494,-9.79083252,0.1441675574
5.832871266,-0.6059823632,-9.76211834,0.1393819153
5.837648089,-0.5916253924,-9.76211834,0.1393819153
5.842424912,-0.6011967063,-9.752547264,0.1585244983
5.847201735,-0.5868397355,-9.747760773,0.1728814393
