Time (s),Acceleration x (m/s^2),Acceleration y (m/s^2),Acceleration z (m/s^2)
6.000606417,-2.2919683506426054,1.6466003802933233,0.15157573857477086
6.005361001,-2.454711779558899,1.9164866226329318,0.2638984949456687
6.010115636,-2.6031108806757053,2.1773751205146827,0.3791329139895593
6.01487022,-2.7346316866640987,2.42656107320026,0.49662805147103506
6.019624855,-2.846825608036476,2.6613992972755773,0.6156665069254168
6.024379438,-2.9373659458839505,2.879336579209339,0.7354676615923337
6.029134074,-3.0040841548925132,3.077943662135427,0.855192156814039
6.033888709,-3.045005311027848,3.2549464390725125,0.9739476458967047
6.038643292,-3.0583822357234767,3.4082559222774935,1.090795826025939
6.043397928,-3.0427277336387535,3.535996561439975,1.2047607278034942
6.048152563,-2.9968444139240074,3.6365324920908324,1.3148382091725013
6.052907147,-2.919851585325883,3.7084913100533945,1.4200065688992738
6.057661782,-2.811208743194492,3.7507849882006683,1.5192381634030203
6.062416365,-2.670735201197797,3.7626275784189844,1.6115118806380577
6.067171001,-2.4986254618977832,3.743549374683826,1.695826297065996
6.071925584,-2.2954599678818925,3.693407252542934,1.7712133196664972
6.07668022,-2.0622109285232404,3.6123909459046963,1.836752095504605
6.081434855,-1.8002429763737218,3.501025073509174,1.8915829574391878
6.086189438,-1.5113084713499907,3.360166784307971,1.9349211665834865
6.090944074,-1.197537339796796,3.1909989524886875,1.9660702101630336
6.095698709,-0.8614214086170426,2.9950189181776645,1.9844344171256207
6.100453292,-0.5057932713233292,2.774022838011294,1.9895306625836704
6.105207928,-0.1337998025327196,2.5300857798251903,1.98099894495573
6.109962511,0.25112948040951194,2.265537766616595,1.95861163527461
6.114717147,0.6453189258759545,1.9829360454916705,1.9222812151312036
6.119471782,1.0448877583021994,1.6850339262188319,1.8720663369157837
6.124226365,1.4457951365660813,1.3747465999067876,1.808176056895013
6.128981001,1.8438887217468047,1.0551144097612943,1.730972108742011
6.133735636,2.234956133342365,0.7292641013440347,1.6409691038519294
6.13849022,2.614778595385123,0.4003686278555566,1.538832566848376
6.143244855,2.979186003633486,0.07160612556868569,1.4253747412897477
6.147999438,3.3241125857324825,-0.25388129512282503,1.3015481318883644
6.152754074,3.64565228234901,-0.5730282769956956,1.168436785026192
6.157508709,3.9401129532366483,-0.8828857851316184,1.0272453485755608
6.162263292,4.204068510833222,-1.1806588415411912,0.8792859953004515
6.167017928,4.4344081051868605,-1.4637417604757286,0.7259633419517494
6.171772563,4.628381524459168,-1.729750243860566,0.5687575477764234
6.176527147,4.78364003010748,-1.9765497347675072,0.4092058279867462
6.181281782,4.8982719109741915,-2.2022794810488118,0.24888266406167067
6.186036417,4.970832114064931,-2.4053718321781243,0.0893790286568627
6.190791001,5.000365392152132,-2.5845663802253203,-0.06771903257955474
6.195545636,4.986422500910802,-2.7389186599739834,-0.2208521035313313
6.20030022,4.929069082368627,-2.867803241554303,-0.3685090128043692
6.205054855,4.828886987601379,-2.970911178589065,-0.5092479785681759
6.20980949,4.686967919547262,-3.0482419118678266,-0.6417168923483054
6.214564074,4.504899415447363,-3.1000898684944396,-0.764672351855216
6.219318709,4.28474333555783,-3.127026134205499,-0.8769970671509004
6.224073345,4.029007176406576,-3.129875706265645,-0.9777152946129335
6.228827928,3.7406086766059228,-3.109690949470047,-1.0660059977010812
6.233582563,3.422834323145895,-3.067721971919034,-1.1412134873846584
6.238337199,3.0792924888167565,-3.0053847054273857,-1.2028553525613181
6.243091782,2.713862032118493,-2.924227515224841,-1.2506275487241119
6.247846417,2.330637267814822,-2.825897175087946,-1.2844065714091795
6.252601053,1.9338702692067027,-2.712105029149254,-1.3042487003202963
6.257355636,1.5279114929895838,-2.5845941232266987,-1.3103863596855259
6.262110272,1.1171497251308928,-2.445108029784009,-1.3032216976990694
6.266864855,0.7059523326021221,-2.2953620148053786,-1.2833175398018177
6.27161949,0.29860677234471894,-2.137017105189331,-1.2513859152531897
6.276374126,-0.10073574272339066,-1.971657515003755,-1.208274393851819
6.281128761,-0.4881135882920088,-1.8007717813591895,-1.1549505006970542
6.285883345,-0.8598043319847769,-1.6257378489445655,-1.0924845023992078
6.29063798,-1.2123699339720344,-1.447812229467033,-1.0220308782514147
6.295392563,-1.5426969802379769,-1.2681232511534042,-0.944808804037076
6.300147199,-1.8480314837024636,-1.0876683066639528,-0.862081983883674
6.304901834,-2.126007888289165,-0.9073149076043705,-0.7751381670827626
6.309656417,-2.37467200900428,-0.7278052625347888,-0.6852686829216829
6.314411053,-2.5924977362870965,-0.5497640150435633,-0.5937483182549086
6.319165688,-2.7783974251520487,-0.3737087108658251,-0.5018158503832446
6.323920272,-2.9317259788463383,-0.20006250956013302,-0.41065553207369687
6.328674907,-3.0522787224681767,-0.029168617841014592,-0.3213798064035865
6.333429542,-3.1402832435250607,0.1386941012062236,-0.23501350680276126
6.338184126,-3.1963854529937037,0.30329489607062265,-0.15247977261708687
6.342938761,-3.2216301913743677,0.4644348170069647,-0.07458788322228471
6.347693397,-3.217436768834502,0.6219308511768031,-0.002023184533111708
6.35244798,-3.185569886029318,0.7756009898162303,0.06466074927160856
6.357202615,-3.1281064316689298,0.9252506671739594,0.1250476090151079
6.361957251,-3.047398693528623,1.0706609537493728,0.1788614241072438
6.366711834,-2.946034550861135,1.211578821274153,0.22596717877146952
6.37146647,-2.8267952380740775,1.3477097259973967,0.2663689715686252
6.376221105,-2.692611282576813,1.4787126822260108,0.3002057578044436
6.380975688,-2.5465172246962933,1.6041979217899904,0.32774475316300516
6.385730324,-2.391605725464517,1.7237271591575143,0.3493726147376277
6.390484959,-2.2309816598162078,1.836816408257047,0.36558455184456107
6.395239595,-2.06771677907694,1.9429412274880065,0.3769715529711682
6.399994178,-1.9048055081551056,2.041544205544892,0.38420594633638744
6.404748813,-1.74512242000392,2.1320444439207473,0.3880255392827527
6.409503449,-1.5913819029913054,2.213848743390016,0.3892166056248879
6.414258032,-1.4461005059969656,2.2863641622003112,0.38859600982345155
6.419012667,-1.3115624114684146,2.349011583640647,0.3869927722126245
6.423767303,-1.1897884484196612,2.4012399103564985,0.3852293903108566
6.428521886,-1.082509015601205,2.4425404923079936,0.3841032373443277
6.433276522,-0.9911412400349461,2.472461394518027,0.384368360407422
6.438031157,-0.9167706480733541,2.4906211194705654,0.3867179971278647
6.44278574,-0.8601375753961805,2.4967214167434726,0.3917681213158488
6.447540376,-0.8216284891590394,2.490558838545419,0.4000423149641984
6.452295011,-0.8012723400794522,2.472034733451145,0.41195824635641237
6.457049595,-0.798742004794206,2.4411634108334574,0.42781601229797667
6.46180423,-0.8133608195894434,2.3980782541874515,0.4477885771044141
6.466558865,-0.8441141459390843,2.3430356115052717,0.4719145124873402
6.471313501,-0.8896658466772684,2.276416343721726,0.5000932113380625
6.476068084,-0.9483794897052383,2.1987249665736264,0.5320827149726549
6.48082272,-1.0183440346592316,2.110586375613829,0.5675002579548607
6.485577355,-1.0974036978287893,2.0127401973771173,0.6058255972896716
6.490331938,-1.1831916327241137,1.9060328607732469,0.6464071532139929
6.495086574,-1.2731670088846123,1.7914075306980217,0.6884709455940226
6.499841209,-1.3646550205866608,1.669892089506121,0.7311322605750741
6.504595792,-1.4548893107928837,1.542585390219993,0.7734099243711725
6.509350428,-1.5410562544462099,1.410642037322063,0.8142429954278085
6.514105063,-1.620340508955376,1.2752559765644143,0.8525096174052404
6.518859647,-1.6899712080490459,1.1376431949337495,0.8870477110723858
6.523614282,-1.7472681480927035,0.9990238463342107,0.9166771301063505
6.528368917,-1.789687294324989,0.8606041279048444,0.9402228674531202
6.533123553,-1.8148649198777211,0.7235582358960417,0.9565388752940633
6.537878136,-1.820659684772264,0.5890107281831956,0.9645320505729712
6.542632772,-1.8051919670465204,0.4580196123781254,0.9631859365109441
6.547387407,-1.7668797750987901,0.3315604640094192,0.9515836958608224
6.55214199,-1.7044706001788203,0.21051185871641945,0.9289299220192812
6.556896626,-1.6170686112474628,0.09564237660572388,0.8945708689136258
6.561651261,-1.5041566512224618,-0.01240059306653919,0.8480127002044017
6.566405897,-1.3656125635141063,-0.11310005168578759,0.7889373836096907
6.57116048,-1.2017194600009524,-0.20607643509440182,0.7172158877240249
6.575915115,-1.0131696352766548,-0.291092376498535,0.6329183768019029
6.580669751,-0.8010619358478747,-0.36805509908559564,0.5363211434796491
6.585424334,-0.5668925051328958,-0.43701638419682487,0.4279100701435632
6.59017897,-0.3125389432038471,-0.49817009572625354,0.3083804665445862
6.594933605,-0.04023804155986173,-0.5518472759250663,0.17863319409250777
6.59968824,0.2474426249739583,-0.5985088621271007,0.039767055232392344
6.604442824,0.5476388478140561,-0.6387361082783201,-0.10693250212603117
6.609197459,0.8572291606084684,-0.6732188297704216,-0.2600082419901202
6.613952095,1.172878821957516,-0.7027416250894204,-0.41784936368483216
6.618706678,1.4910876927228172,-0.7281682631233143,-0.5787128253672779
6.623461313,1.8082412183302206,-0.7504244602234131,-0.7407474360853884
6.628215949,2.120663666119667,-0.7704793055260306,-0.9020203253045286
6.632970584,2.424672725773865,-0.7893256256233014,-1.0605453470117703
6.637725167,2.71663455755748,-0.8079596093578049,-1.2143129328547733
6.642479803,2.993018368258064,-0.827360039280873,-1.3613208767383884
6.647234438,3.25044960764128,-0.8484674972093779,-1.4996055131365136
6.651989022,3.48576090789482,-0.8721639264346398,-1.6272727436993373
6.656743657,3.6960399336280543,-0.8992529415855226,-1.7425283711704385
6.661498292,3.8786733689952997,-0.9304412780766151,-1.843707214828395
6.666252928,4.0313863398458185,-0.966321765788064,-1.9293005058141628
6.671007511,4.152276650983484,-1.0073581957103601,-1.997981092148318
6.675762147,4.239843310194126,-1.05387242364676,-2.0486260208665352
6.680516782,4.293008910047447,-1.1060340218505262,-2.0803361078908513
6.685271417,4.311135543635256,-1.163852748009886,-2.092452154648103
6.690026001,4.2940340390971645,-1.2271740517949354,-2.0845675237400254
6.694780636,4.241966407657222,-1.2956777830436579,-2.0565368438445457
6.699535272,4.155641508773858,-1.368880203741926,-2.0084806761542913
6.704289907,4.036204042087048,-1.446139339745728,-1.9407860406275241
6.70904449,3.885217077799475,-1.5266636394534516,-1.8541027694940315
6.713799126,3.70463843406396,-1.6095238372121032,-1.749335726809242
6.718553761,3.4967913012804632,-1.6936678509259717,-1.6276330050078605
6.723308345,3.264329598409375,-1.7779384777270493,-1.4903702808115724
6.72806298,3.01019862470006,-1.8610935899853431,-1.3391315819711336
6.732817615,2.737591640334366,-1.94182847746254,-1.1756867816941066
6.737572251,2.449903069746691,-2.0187999310220905,-1.001966197492337
6.742326834,2.1506790702064444,-2.0906516200088467,-0.8200327234102406
6.74708147,1.8435662443766663,-2.1560402802428453,-0.6320519669838965
6.751836105,1.532259298116884,-2.21366220352234,-0.44026089342210534
6.75659074,1.220448453325064,-2.262279503427595,-0.2469354992197676
6.761345324,0.9117674202154415,-2.3007456266272936,-0.054358046609106356
6.766099959,0.6097427147911156,-2.328029584067117,0.1352156096410065
6.770854595,0.3177450764730154,-2.3432383923337885,0.3195880791439446
6.77560923,0.03894369911081799,-2.345637241916384,0.49665136686072814
6.780363813,-0.2237360628764218,-2.3346669456991602,0.6644161889424143
6.785118449,-0.4676509116056364,-2.309958267399593,0.8210392110249174
6.789873084,-0.690473212263143,-2.2713427852903876,0.9648477797401495
6.79462772,-0.8902195298335519,-2.2188600107430703,1.0943617579766873
6.799382303,-1.0652737171292224,-2.152760553009059,1.20831212068684
6.804136938,-1.2144042600735119,-2.073505200032995,1.3056560204644354
6.808891574,-1.3367756742538615,-1.9817598685060758,1.3855880902052213
6.813646209,-1.4319538369656355,-1.8783864631065,1.4475478132938482
6.818400792,-1.499905230595904,-1.7644297730325291,1.4912228591804293
6.823155428,-1.5409901657812057,-1.6411006214277035,1.5165483529142816
6.827910063,-1.5559501458657816,-1.509755567915909,1.5237021199025704
6.832664699,-1.5458896270793505,-1.371873543956257,1.5130960203982688
6.837419282,-1.51225252034618,-1.2290298729075484,1.4853635605993802
6.842173917,-1.4567938689872417,-1.08286818953709,1.4413440376073763
6.846928553,-1.3815472196763425,-0.9350708254553957,1.3820635429526105
6.851683188,-1.2887882796633197,-0.7873282661580713,1.308713213181745
6.856437772,-1.1809955194525008,-0.6413083108519156,1.2226251753898116
6.861192407,-1.0608084351225795,-0.4986255770575225,1.1252466900493678
6.865947042,-0.9309842269323099,-0.36081198721980046,1.0181130429824732
6.870701678,-0.794353679605777,-0.2292888535691463,0.902819782906877
6.875456261,-0.6537770435901628,-0.10534114036495694,0.780994939653344
6.880210897,-0.5121007142800539,0.009905569285829138,0.6542718867955768
6.884965532,-0.37211548536413547,0.11550493931075673,0.5242635207791414
6.889720167,-0.2365171087579934,0.210706190900724,0.3925383991777337
6.894474803,-0.10786982211661596,0.2949665505372844,0.2605993977159986
6.899229386,0.011426595060024653,0.3679596161592287,0.1298653119169697
6.903984022,0.11916579721052292,0.4295795113716353,0.0016556702867870714
6.908738657,0.213359571847264,0.47994078750098734,-0.12282112645193478
6.913493292,0.29225808301673434,0.5193741215449513,-0.24247635240947035
6.918247876,0.354365601451634,0.5484179429837284,-0.35634630029691056
6.923002511,0.39845177378234525,0.5678062024160168,-0.4635946071215731
6.927757147,0.42355857980792516,0.5784525684217252,-0.5635118056300019
6.932511782,0.4290032085011155,0.5814314043844235,-0.6555123929367603
6.937266365,0.41437714925623376,0.5779559329398886,-0.7391297461885289
6.942021001,0.3795418451659731,0.5693540412974929,-0.8140092433924426
6.946775636,0.32462129104358145,0.5570422152627529,-0.8798999638427505
6.951530272,0.2499919819122951,0.5424981130103066,-0.9366453457899366
6.956284907,0.15627062885454818,0.527232301440293,-0.9841731694978605
6.96103949,0.04430005909309555,0.5127596784857354,-1.0224852134502254
6.965794126,-0.08486629367397744,0.5005710944340016,-1.0516469028804154
6.970548761,-0.22998092402794781,0.49210566481391793,-1.071777235865222
6.975303397,-0.38961946143790566,0.4887242375907721,-1.0830392354454577
6.98005798,-0.5621982361830747,0.4916844395235872,-1.0856311384790027
6.984812615,-0.7459919407100858,0.5021176820645445,-1.0797784943464506
6.989567251,-0.9391511771656728,0.5210084578063868,-1.0657273097125164
6.994321886,-1.1397197397859016,0.5491762060174207,-1.0437383392881834
6.999076522,-1.3456515391389245,0.5872599720862886,-1.014082586683211
7.003831105,-1.5548271310378474,0.6357060324830116,-0.9770380438092281
7.00858574,-1.765069863690247,0.6947586056618809,-0.9328876620409894
7.013340376,-1.9741617000931755,0.7644537213807853,-0.8819185140242395
7.018095011,-2.1798588069271494,0.844616276939303,-0.8244220725477189
7.022849595,-2.3799070248182628,0.9348602690686759,-0.7606955034178029
7.02760423,-2.572057346992931,1.0345921543552714,-0.6910438439134826
7.032358865,-2.7540815338701248,1.143017258486078,-0.6157829179396056
7.037113501,-2.923787980483439,1.2591491244484627,-0.5352428236611868
7.041868136,-3.079037932875171,1.3818216613255077,-0.44977181891738993
7.04662272,-3.2177621204070723,1.5097039279377107,-0.3597404236012258
7.051377355,-3.3379778353901766,1.6413173589929841,-0.26554555606485547
7.05613199,-3.43780645188147,1.7750552155517734,-0.1676145222840282
7.060886626,-3.515491334228385,1.909204016579732,-0.06640868190090574
7.065641209,-3.5694160449848518,2.0419666843455184,0.03757337577731366
7.070395845,-3.598122722694395,2.1714871137487575,0.1437933004765891
7.07515048,-3.600330463583852,2.2958758548031493,0.2516712337686821
7.079905115,-3.5749535075836074,2.4132365790548436,0.3605849675485778
7.084659751,-3.5211189979423354,2.5216929853665584,0.4698701094565533
7.089414334,-3.4381840546534317,2.6194157889078253,0.5788213339886301
7.09416897,-3.3257518750603956,2.7046494298801913,0.686694773407426
7.098923605,-3.1836865512245702,2.7757381357428064,0.7927115761890475
7.10367824,-3.01212627439074,2.831150972511369,0.8960626332368834
7.108432876,-2.8114945837922547,2.869505526954331,0.9959144443317614
7.113187459,-2.5825093113881863,2.889589872040647,1.0914160702805318
7.117942095,-2.326188876615752,2.89038248269684,1.1817070908950502
7.12269673,-2.043855596024986,2.8710697878305598,1.2659264658454146
7.127451365,-1.7371356916571552,2.8310610678607344,1.343222174626041
7.132206001,-1.4079557092386126,2.770000434972513,1.4127614929741168
7.136960584,-1.058535092914624,2.687775666281741,1.4737417456886142
7.14171522,-0.6913747077285735,2.584523698149351,1.525401359935705
7.146469855,-0.309241154742966,2.46063263286304,1.5670310293941896
7.15122449,0.08485321320494985,2.3167401564058228,1.5979847889706293
7.155979074,0.48767459477159875,2.1537283174933903,1.6176907932916504
7.160733709,0.8957963010659262,1.9727146727808162,1.6256615905005665
7.165488345,1.3056314244445733,1.7750398603031872,1.6215036864815882
7.17024298,1.7134693708706255,1.562251721958975,1.6049262037101892
7.174997615,2.1155159133233967,1.3360861553134125,1.5757484534086614
7.179752199,2.5079363240633565,1.0984449344057963,1.5339062589411112
7.184506834,2.8869010449730497,0.8513707979109879,1.4794568909306103
7.18926147,3.248633260421989,0.597020160373186,1.412582498141147
7.194016105,3.5894576492517483,0.3376338578598687,1.3335919402213456
7.19877074,3.9058495155312807,0.0755063928432284,1.2429209472728935
7.203525376,4.19448343686712,-0.18704580639317597,1.141130547497254
7.208279959,4.452280529969566,-0.4477165506763455,1.0289037217998287
7.213034595,4.676453420264033,-0.7042418795668572,0.9070402691328628
7.21778923,4.864548017004947,-0.9544312482916701,0.7764499024741478
7.222543865,5.014481236049626,-1.1961972707995165,0.6381436408890506
7.227298501,5.124573876090223,-1.4275833805648475,0.4932236112937031
7.232053084,5.193577937362494,-1.6467887920939666,0.3428714172669022
7.23680772,5.2206977715432155,-1.852190187201434,0.1883352683641753
7.241562355,5.205604565112245,-2.0423596118223486,0.030916092509151567
7.24631699,5.148443784027262,-2.2160781518193238,-0.12804712226312662
7.251071626,5.049835343916668,-2.37234505985833,-0.28719249207229547
7.255826209,4.910866415950127,-2.510382128976593,-0.4451506316298479
7.260580845,4.733076932124663,-2.629633249341583,-0.6005600016945604
7.26533548,4.518438011636603,-2.729759238067053,-0.7520819428813408
7.270090115,4.269323687730636,-2.8106281906117028,-0.8984151509893306
7.274844751,3.988476466348573,-2.872301757095254,-1.0383093789098088
7.279599386,3.678967387748925,-2.915017887664078,-1.1705781832925826
7.28435397,3.344151383454539,-2.9391707081048017,-1.2941105663102408
7.289108605,2.98761881735728,-2.945288272704059,-1.407881392098856
7.29386324,2.61314416715229,-2.9340089918376333,-1.510960483948785
7.298617876,2.224632838579303,-2.906057546585431,-1.6025203332130882
7.303372511,1.8260671108852387,-2.8622210842960367,-1.6818423752053075
7.308127095,1.4214521900335133,-2.803326441578031,-1.748321811542735
7.31288173,1.0147632999568525,-2.7302190694605084,-1.801470982486284
7.317636365,0.6098946754152259,-2.6437442443711716,-1.8409213166081984
7.322391001,0.21061123679969754,-2.5447310429593806,-1.8664239081221352
7.327145636,-0.17949636825301105,-2.433979443280277,-1.8778487936655164
7.33190022,-0.5570527749040945,-2.3122507938119297,-1.8751830192235546
7.336654855,-0.918934488095632,-2.180261769185156,-1.8585276032699432
7.34140949,-1.2623016780001404,-2.038681810963718,-1.8280935134642577
7.346164126,-1.5846249178273828,-1.8881339366242686,-1.784196781245396
7.350918761,-1.8837066941069949,-1.7291986931353451,-1.727252881623958
