Time (s),Acceleration x (m/s^2),Acceleration y (m/s^2),Acceleration z (m/s^2)
6.004617187,0.16184849774588633,0.14569099032948016,-0.02519859540181523
6.009372447,0.144059786941941,0.07403837500091906,-0.13105856833658414
6.014127656,0.12653184803959677,0.0058754867137726565,-0.2324551668807865
6.018882864,0.1094820595878227,-0.0552756624383125,-0.3248818332703863
6.023638072,0.09315404266807806,-0.10624056158253559,-0.40447285606213074
6.028393333,0.07782788730617632,-0.14434524796916784,-0.4682540943306867
6.033148541,0.06382026466850427,-0.16753533649081634,-0.5143025673057219
6.037903749,0.05147634327354095,-0.17445717787718812,-0.5418041691491327
6.042658958,0.041157651591152394,-0.1645013110575303,-0.5510123802850204
6.047414218,0.03323058934672484,-0.13781104985039513,-0.5431233808655411
6.052169426,0.02805903835290557,-0.09526011758121873,-0.5200923095202205
6.056924635,0.026001845912924575,-0.03840306510030898,-0.48442005877359895
6.061679843,0.027412809852596826,0.030598612912720754,-0.43893943199763075
6.066435051,0.03263844169766522,0.10907263369778368,-0.38662424800205447
6.071190312,0.04200818732894922,0.19395280272705998,-0.33043643856392035
6.07594552,0.055813154709282685,0.28191477901774586,-0.2732161797754591
6.080700729,0.07427216626371203,0.3695277164071653,-0.21761063720974635
6.085455937,0.0974871207913485,0.45341684386735165,-0.16602984126702985
6.090211197,0.12539229491365134,0.5304298072778695,-0.12061486757085632
6.094966406,0.1577038476254164,0.5977975986932744,-0.08320436001964675
6.099721614,0.19387638563224746,0.6532797141839193,-0.05528999643807086
6.104476822,0.23307326004550022,0.6952831541573063,-0.03795841106272064
6.109232083,0.2741566640899455,0.7229458927568664,-0.0318245768502528
6.113987291,0.3157028206550099,0.7361771389719302,-0.036967899286948325
6.118742499,0.3560463478680761,0.7356490822517759,-0.05288571691275018
6.123497708,0.3933555785228826,0.7227381993330015,-0.07847867233210683
6.128252968,0.4257367194461799,0.6994185778303581,-0.11207875973058969
6.133008176,0.4513597474773926,0.6681143772574994,-0.15152491608592425
6.137763385,0.468594226065727,0.6315226047045367,-0.1942840968221511
6.142518593,0.4761402920709798,0.5924203126800478,-0.23760889915437378
6.147273801,0.47313974142684156,0.5534719732390204,-0.2787169312076345
6.152029062,0.45925438225187776,0.5170530092581656,-0.31497330855060035
6.15678427,0.434703007117264,0.48510404964005505,-0.34405675113463213
6.161539479,0.4002536706281344,0.4590273514897753,-0.3640920735685098
6.166294687,0.35717359195063564,0.4396323002503936,-0.3737370328199331
6.171049947,0.3071439663344402,0.4271315597923791,-0.3722185414080981
6.175805156,0.25215028847798177,0.42118400664696337,-0.3593208548982924
6.180560364,0.19435987449698527,0.4209758057742028,-0.33533511700629903
6.185315572,0.13599728507451428,0.4253276749591995,-0.30098433576008043
6.190070833,0.07922612219756532,0.4328151796777465,-0.257339542904397
6.194826041,0.02604314958056123,0.44188993434437146,-0.2057412745821206
6.199581249,-0.021811495624334584,0.45099238455371343,-0.14773618984393838
6.204336458,-0.06292586623029615,0.4586505429362736,-0.08503287333206332
6.209091666,-0.09626856801726237,0.46356268245124144,-0.019475059656707334
6.213846926,-0.12122174835163431,0.46466470920521413,0.04697420780441541
6.218602135,-0.13759494755679297,0.4611842187851989,0.11224695145544897
6.223357343,-0.1456199326940992,0.45268301712707504,0.1741936516752371
6.228112551,-0.14592606835014507,0.43908851522985076,0.23062525404037382
6.23286776,-0.13949529259762478,0.42071252598940423,0.2793807238890723
6.23762302,-0.12759610551598757,0.39825432266236765,0.31842272309466785
6.242378229,-0.11169758511777698,0.3727839307666941,0.34595813168143263
6.247133437,-0.09336713105207989,0.3457018034228319,0.3605734312757775
6.251888645,-0.07415869202278724,0.318672319851691,0.3613686687857463
6.256643906,-0.0555007765268352,0.2935308378896608,0.34806946322516175
6.261399114,-0.038594825405130526,0.27216707043410054,0.3210957684579484
6.266154322,-0.024334121473798875,0.256390945873755,0.28156963872740726
6.270909531,-0.013251371524319312,0.2477903740264205,0.23125191907375225
6.275664739,-0.005499907799624929,0.24759296799785044,0.17240851795548084
6.280419999,-0.0008697779283112652,0.25654523539030066,0.1076187976710453
6.285175208,0.001163717325965802,0.2748225525756511,0.03954916728827538
6.289930416,0.0013649943248177413,0.3019811272911327,-0.029278297915559717
6.294685624,0.0006456285593662836,0.3369592944537523,-0.09669119996693797
6.299440833,-3.478885066215585e-05,0.3781304102222387,-0.16101982368971665
6.304196093,0.00023704224153717364,0.4234041221890956,-0.22118084662664747
6.308951301,0.002248867707620886,0.47036782294224927,-0.276686306639196
6.31370651,0.006606048603424255,0.5164563928408189,-0.32758324360578017
6.318461718,0.013700554861951911,0.5591362323071816,-0.37433747940929984
6.323216926,0.02370478233307916,0.5960889349593993,-0.41767940089951083
6.327972187,0.036585404958618395,0.6253804041681109,-0.45843082912836636
6.332727395,0.0521301851063137,0.6456025379372015,-0.4973311896645554
6.337482604,0.06998035734563306,0.6559767650041731,-0.5348793069114258
6.342237812,0.08966275580084235,0.6564116513261891,-0.5712049599275687
6.34699302,0.11061855545053802,0.6475103252128652,-0.6059820899974644
6.351748281,0.132228289915582,0.6305273662578154,-0.6383929245760771
6.356503489,0.1538347259789946,0.6072788128572704,-0.6671487294538041
6.361258697,0.17476567243401295,0.5800126967989553,-0.6905681225445762
6.366013906,0.19435788939644288,0.5512505684792405,-0.706708053861636
6.370769114,0.2119814963056578,0.5236124782727112,-0.7135362931404227
6.375524322,0.22706252951634018,0.4996386724469924,-0.7091284863325529
6.380279583,0.23910039729658086,0.48162088380767387,-0.6918685372671521
6.385034791,0.24767740573950087,0.4714547352460655,-0.6606291331224489
6.389789999,0.2524593239728862,0.47052270658136996,-0.6149104127487939
6.394545208,0.25318865964927634,0.4796145880905735,-0.5549195634334354
6.399300416,0.24967498853675693,0.49888946978593085,-0.48158238189224734
6.404055676,0.241788184403074,0.5278801463501928,-0.3964883851441603
6.408810885,0.22945986895448534,0.565537529493352,-0.30178173192621593
6.413566093,0.21269571698730402,0.6103096083015734,-0.20001844656983447
6.418321301,0.19159715008742514,0.6602470823485473,-0.09401420981525714
6.42307651,0.16638680866082856,0.7131262782674116,0.013294467786569019
6.42783177,0.13742951856920915,0.7665794555311097,0.11895896750441588
6.432586979,0.10524031456906326,0.8182231588625017,0.22008963326958234
6.437342187,0.07047359452119167,0.8657768762521327,0.3138918030861239
6.442097395,0.033891885900138974,0.9071667154212454,0.39767832929651586
6.446852604,-0.0036823076211803083,0.9406116858370156,0.46887588364355537
6.451607812,-0.041423923849550806,0.9646928665071408,0.5250437190566364
6.456363072,-0.07856196021260543,0.9784074316519152,0.5639201792096453
6.461118281,-0.11442492041239957,0.981209303888892,0.5835047622165735
6.465873489,-0.14846634700190395,0.9730359171513197,0.5821737049182547
6.470628697,-0.18026506122025263,0.9543173864574652,0.5588174119660911
6.475383906,-0.20949961620879765,0.9259623187907772,0.5129810774101152
6.480139114,-0.23590214029526468,0.8893150240587709,0.4449869253446098
6.484894374,-0.25920172381445994,0.8460820720153406,0.3560176545570449
6.489649583,-0.2790701954009652,0.7982309162460409,0.24814505504259762
6.494404791,-0.2950827642760607,0.7478681873945908,0.12429426274928082
6.499159999,-0.30670294199745807,0.6971089520532056,-0.011858291978263566
6.503915208,-0.313296507286113,0.6479499131320997,-0.15604736121238194
6.508670416,-0.3141742120582225,0.6021589023954597,-0.3036285634786605
6.513425624,-0.3086582460033137,0.5611903584158056,-0.4498159546722391
6.518180885,-0.2961636694091043,0.5261325582358208,-0.5899242344188779
6.522936093,-0.2762835860030602,0.4976881473997245,-0.7195915828915748
6.527691301,-0.24886625769344475,0.4761857809710457,-0.8349620746574976
6.53244651,-0.21407374606646776,0.4616178702852655,-0.9328128425319627
6.537201718,-0.17241448080840988,0.45369765928886824,-1.0106194246180389
6.541956979,-0.12474562829624176,0.4519281229009822,-1.0665615189139073
6.546712187,-0.07224469046255555,0.4556753522827439,-1.0994793082269805
6.551467395,-0.0163531443895536,0.46423983026183036,-1.108796469617879
6.556222604,0.04130202519780357,0.4769198645849266,-1.0944291456701436
6.560977812,0.0990006754561103,0.49306220090700525,-1.0567001258544149
6.56573302,0.15502628504135368,0.5120956267916059,-0.9962743200614995
6.570488229,0.20775789261790942,0.5335445375330257,-0.9141259032228244
6.575243489,0.2557492890952215,0.5570211215301899,-0.8115403635170165
6.579998697,0.2977895814285785,0.582196893879808,-0.6901473693035219
6.584753906,0.3329414712109793,0.6087565319619651,-0.5519739733517296
6.589509114,0.36055581871419196,0.6363391824626717,-0.3995029981388515
6.594264322,0.38026326873960536,0.6644743725759862,-0.235719127142396
6.599019531,0.39194588803492747,0.6925209497544699,-0.06412578318794018
6.603774791,0.39569379384438685,0.7196177431962414,0.11128054835271284
6.608529999,0.3917533970896547,0.744653866483009,0.2860858853425025
6.613285208,0.3804748286806421,0.7662649681347178,0.4555844215398836
6.618040416,0.36226610271497606,0.782859440114093,0.614947860806766
6.622795624,0.3375604704755277,0.7926757101366947,0.7594268643310648
6.627550833,0.3068012657209751,0.7938685229540654,0.8845697969337905
6.632306041,0.27044557405325365,0.7846190212319003,0.9864422403720399
6.637061301,0.22898475191558215,0.7632609464384491,1.0618303091774566
6.64181651,0.18297675653505463,0.7284136731054022,1.1084116974070743
6.646571718,0.13308296185449858,0.6791120143590041,1.1248807300671069
6.651326926,0.08010109903467738,0.6149223979331075,1.1110174184870283
6.656082135,0.024986476915009173,0.5360347534550256,1.0676952965697353
6.660837343,-0.031144507258838987,0.44331956118753735,0.9968281732006682
6.665592551,-0.08703214381495272,0.3383408675913214,0.9012613529448155
6.670347812,-0.1413137574012613,0.22331930235693978,0.7846177826614322
6.67510302,-0.19258567351433653,0.101043988286686,0.6511133553856601
6.679858229,-0.23948310711476326,-0.025262285038253205,0.5053576662072803
6.684613437,-0.28077065803272694,-0.15211538466520427,0.35215648307928704
6.689368645,-0.3154319186101888,-0.27596702475051765,0.1963299738979293
6.694123854,-0.3427431379877855,-0.39341240041334924,0.042556548713192116
6.698879062,-0.3623150865015161,-0.5013931322116016,-0.10475336966324164
6.703634322,-0.37409164338966366,-0.5973801861744458,-0.24155515620352608
6.708389531,-0.3783037617092277,-0.6795217695049754,-0.364245344351518
6.713144739,-0.37538996688214477,-0.7467428918340948,-0.4697219356566348
6.717899947,-0.3659031770715107,-0.7987872032403539,-0.5554350181278841
6.722655156,-0.3504239065254695,-0.8361977905176267,-0.6194290449039873
6.727410364,-0.32949285342815166,-0.860240563387397,-0.6603746463967552
6.732165572,-0.3035668898689374,-0.8727799419899925,-0.6775866914737531
6.736920781,-0.27299672331334757,-0.8761204708650887,-0.6710266353727672
6.741676041,-0.23802339853841548,-0.8728294729250804,-0.6412897739865813
6.746431249,-0.19879218432974205,-0.8655555642046936,-0.5895802233117887
6.751186458,-0.15538319785297683,-0.8568565610496901,-0.5176771772857128
6.755941666,-0.10785696767344591,-0.8490483468988581,-0.42789518345944383
6.760696874,-0.056310727459316146,-0.8440836234809975,-0.3230394941487378
6.765452083,-0.000939091294136755,-0.8434662727762038,-0.20635585228829442
6.770207291,0.05790804109176197,-0.8482036644090969,-0.08147289410469817
6.774962499,0.11967663695685839,-0.8587960431634043,0.04766516499936576
6.77971776,0.18357272402925992,-0.875259330104217,0.17687780058271943
6.784472968,0.24854071239403397,-0.897175368836019,0.3018410356160474
6.789228176,0.3132548813602943,-0.9237620498064394,0.4181946140300788
6.793983385,0.37612296815443075,-0.9539551255242322,0.5216634675039582
6.798738593,0.43530237985565795,-0.9864939677299079,0.6081932382534092
6.803493801,0.48873149073306,-1.0200047941455779,0.6740998713081555
6.80824901,0.5341796109587508,-1.05307663378601,0.7162333304776478
6.813004218,0.5693190064485938,-1.084327132732367,0.7321543527261044
6.817759479,0.5918207124911509,-1.112456915879815,0.7203200422543988
6.822514687,0.599472936139967,-1.1362924025613255,0.6802689289655676
6.827269895,0.5903168852911186,-1.1548176870144304,0.6127898646410042
6.832025104,0.5627905647436166,-1.1671965130327715,0.5200535903846121
6.836780312,0.5158677933888826,-1.1727857236592993,0.4056826957990063
6.84153552,0.4491789246910051,-1.1711418968893876,0.2747360609191278
6.846290729,0.36310171480524517,-1.1620230807425422,0.1335881960995221
6.851045937,0.2588140284725473,-1.1453875969523952,-0.01030781183144326
6.855801145,0.13830310553500616,-1.1213919007084918,-0.1487733729870362
6.860556406,0.004328880958833649,-1.0903894735076365,-0.2733593685546854
6.865311614,-0.1396579295227251,-1.052932460692482,-0.37587491439902676
6.870066822,-0.2896386814126811,-1.009776966122408,-0.44894972816720063
6.874822031,-0.4411834452379126,-0.961891528960901,-0.4865819316283915
6.879577239,-0.5896332765697235,-0.9104665171993572,-0.48462078756202115
6.884332447,-0.7303007603086097,-0.8569202393379128,-0.44113756002847077
6.889087656,-0.8586827509975717,-0.8028958045206893,-0.3566465936260392
6.893842864,-0.9706792474568358,-0.7502415864192457,-0.23415137531688815
6.898598072,-1.0628105050317402,-0.700968137344346,-0.07900520976701882
6.903353281,-1.1324215616536062,-0.6571761162298518,0.10140817772884402
6.908108541,-1.1778605562374116,-0.6209534490350771,0.298153399421001
6.912863749,-1.1986155697385286,-0.5942450987882306,0.5013465703621345
6.917618958,-1.1953949075124253,-0.5787045229775387,0.7008357226446263
6.922374166,-1.1701380286628533,-0.5755410551059666,0.8869022753415223
6.927129374,-1.1259484428724562,-0.5853811222618024,1.0509228187475477
6.931884583,-1.0669452874262795,-0.6081626283846249,1.1859315659248293
6.936639791,-0.9980366734278106,-0.6430804159879792,1.2870311245688386
6.941394999,-0.9246251336238391,-0.6885962679061828,1.3516125268399022
6.946150208,-0.8522628667425135,-0.7425198133781921,1.379363826554651
6.950905468,-0.786280546174103,-0.8021579242278443,1.372068547510346
6.955660676,-0.7314173565269715,-0.8645210470387659,1.3332187744335957
6.960415885,-0.6914817708834089,-0.926566824049305,1.267490159005925
6.965171093,-0.669072434059404,-0.9854555024527426,1.1801445697467026
6.969926301,-0.6653854951107562,-1.0387887457024578,1.0764371871549463
6.97468151,-0.6801279255192794,-1.0848038463168772,0.9611054949759604
6.979436718,-0.7115461842948887,-1.1224991175929941,0.8380063838474145
6.984191926,-0.7565678065632903,-1.15167333799038,0.7099454818754846
6.988947135,-0.811042157979936,-1.1728719955778875,0.5787133154349984
6.993702343,-0.8700573100503116,-1.1872446149107208,0.44531112391627514
6.998457551,-0.9283037321506584,-1.196329128819852,0.31032072073809763
7.003212812,-0.9804526493839976,-1.2017893940828848,0.17435237057095174
7.00796802,-1.0215173397065616,-1.2051389435888704,0.03849487171095436
7.012723229,-1.0471688904191194,-1.2074867298495404,-0.09530669041533946
7.017478437,-1.0539834773862484,-1.2093383903598995,-0.22400896044238897
7.022233645,-1.0396055821323011,-1.210479651498579,-0.34340880067230317
7.026988854,-1.0028202783700024,-1.2099578947160943,-0.44828313445607154
7.031744062,-0.9435371950412381,-1.206165281206736,-0.5327249568396767
7.03649927,-0.8626978866959498,-1.1970140245646608,-0.5906449875297257
7.041254479,-0.7621255309600692,-1.1801831491376285,-0.6163867588912647
7.046009687,-0.64433975730378,-1.1534078278803703,-0.6053872779101214
7.050764895,-0.5123595905563817,-1.114778073706986,-0.5548073041842725
7.055520156,-0.36951457683747657,-1.063013261758642,-0.4640554106659241
7.060275364,-0.21927918455330878,-0.9976821213888785,-0.3351382585199492
7.065030572,-0.06513952189985643,-0.9193437792922874,-0.1727852546620555
7.069785781,0.08950486923434803,-0.8295936596033024,0.01568217372208174
7.074540989,0.24140714316759226,-0.7310079741064421,0.22073975548287444
7.079296197,0.38751474086701776,-0.6269911989991385,0.43128214456708164
7.084051406,0.524996602940196,-0.5215410728544994,0.6354233855497614
7.088806614,0.6512663665476209,-0.41895407248626454,0.8213986659568759
7.093561822,0.7640096813533829,-0.32350015539308036,0.9784747097813034
7.098317031,0.8612198232383305,-0.23909822446602622,1.0977723763633758
7.103072239,0.94124131254082,-0.169022952751827,1.1729143832268327
7.107827447,1.0028175497421434,-0.11566939878459116,1.2004329840711319
7.112582656,1.0451364355758457,-0.08039490006505283,1.1799036457560543
7.117337864,1.0678677049972793,-0.06344910642641709,1.113805867069535
7.122093124,1.071186835808694,-0.06399388016389441,1.0071451554343642
7.126848333,1.055782220018127,-0.08020630366191137,0.8668956690410109
7.131603541,1.0228442368645083,-0.10945122542019856,0.7013379438877947
7.136358749,0.9740365967681917,-0.14850527341585332,0.5193694080726212
7.141113958,0.9114516597780141,-0.1938120614908229,0.32985788509759895
7.145869166,0.8375522388519081,-0.2417478855737676,0.1410923678622708
7.150624374,0.7551024745315559,-0.2888779714106137,-0.039635554889098555
7.155379583,0.6670894433001175,-0.33218496557448873,-0.20630812862880057
7.160134791,0.5766352773586091,-0.3692537301337061,-0.3543232240171379
7.164889999,0.48689765441390637,-0.39839956707867524,-0.48052214313953534
7.169645208,0.4009561480839426,-0.41873077599231856,-0.5831301419119308
7.174400416,0.321683936029278,-0.43014093804870923,-0.6616358385545449
7.179155624,0.25160787480554614,-0.43323141776288665,-0.716630267967023
7.183910833,0.1927635565371238,-0.4291700922091051,-0.7496183724862989
7.188666041,0.1465553165849275,-0.41949803877935454,-0.7628079274531188
7.193421249,0.11363462817461858,-0.4059015161637811,-0.758875987346249
7.198176458,0.09381355407420024,-0.3899714605123011,-0.7407127226234015
7.202931718,0.08603154780684079,-0.37297598781129826,-0.7111473123289584
7.207686926,0.08839221152692535,-0.35567210026601825,-0.6726690990630622
7.212442135,0.09828044760542319,-0.33818031873767296,-0.6271669516281821
7.217197343,0.11255994795969201,-0.3199402095004741,-0.5757175317119081
7.221952551,0.1278380944385962,-0.29975620573660755,-0.5184561293677754
7.22670776,0.140773263653189,-0.27593276849676995,-0.4545604360559302
7.231462968,0.14839132106148017,-0.24648725129854532,-0.3823681145379298
7.236218176,0.14837556310339173,-0.20941936459123447,-0.2996344001696447
7.240973385,0.1392975597262005,-0.16300913372221676,-0.2039177923403656
7.245728593,0.1207638246553757,-0.10611153705990871,-0.09306212700567215
7.250483801,0.09346299951350633,-0.03841592255625932,0.03427531523539794
7.25523901,0.059108654343000125,0.03935846529569739,0.17811403646081625
7.259994218,0.0202829736649548,0.12535372268488412,0.33672934586720604
7.264749426,-0.019803950806237473,0.2165665959180141,0.5063867952616992
7.269504635,-0.05761622919566935,0.30895040680570307,0.6812846637119454
7.274259843,-0.08962626152306591,0.39762269455440286,0.8537345217948008
7.279015051,-0.11264754512368869,0.4771661673723893,1.0145815609845785
7.28377026,-0.12413240306097917,0.54200165327937,1.1538361744625756
7.288525468,-0.12240410461951394,0.5868041464116153,1.2614605063845516
7.293280676,-0.10680000732034362,0.6069275794308179,1.328232370975385
7.298035885,-0.07771282296575888,0.5988014725297519,1.3465971069670746
7.302791093,-0.036529595661719615,0.5602637467117357,1.3114169655154209
7.307546354,0.014519542192353869,0.4907989199366206,1.2205372202064653
7.312301562,0.07258077813406358,0.39165928686761686,1.0751069014308043
7.31705677,0.13443669614139567,0.2658576214881142,0.8796178813658572
7.321811979,0.19677919079237863,0.11803201320205499,0.6416563811663096
