Time (s),Acceleration x (m/s^2),Acceleration y (m/s^2),Acceleration z (m/s^2)
6.001979407,3.318363667,-6.59871912,1.999158382
6.006979407,3.284844637,-6.986579895,3.086126089
6.011979407,3.145981073,-7.127837658,2.968810081
6.01697944,2.930502892,-7.113472462,2.293645144
6.021979473,2.437297344,-7.048829079,1.620874524
6.026979506,1.944091797,-7.072771072,1.180341482
6.031979506,1.498770237,-7.316979885,1.079784989
6.036979506,1.386242747,-7.558794022,1.304839969
6.041979472,1.290474772,-7.989750385,1.903390408
6.046979472,1.134851575,-8.375216484,2.370259762
6.051979472,0.8236053586,-9.148544312,3.857059002
6.056979105,0.4548983276,-9.883563995,5.638644218
6.061978438,0.2130839527,-10.68562126,7.096713066
6.066978438,0.04788403213,-11.5188036,7.786243439
6.071978438,-0.1149216816,-12.23227596,7.776666164
6.076978438,-0.6033388376,-12.63210773,7.616254807
6.081978438,-0.9959878922,-12.96011353,8.013691902
6.086978404,-1.149216771,-12.8499794,8.573935509
6.091978404,-0.8475474119,-12.20115089,9.34486866
6.096978404,-0.2992752194,-11.67921543,9.672874451
6.101978437,0.5770025849,-10.90109921,9.804554939
6.106978437,1.805228114,-10.5419693,9.878775597
6.111978437,3.08373189,-10.45098972,9.668086052
6.116978403,4.326322556,-10.5419693,9.134179115
6.121978369,5.609913826,-10.59224796,7.654561996
6.126978335,6.222829342,-10.5371809,6.428730965
6.131978335,6.725611687,-10.11340714,4.527435303
6.136978335,6.512527943,-9.713575363,3.258508444
6.141978368,6.095936775,-9.30656147,1.623268723
6.146978401,5.581183434,-9.184456825,0.5147533417
6.151978434,4.644751072,-8.980949402,-1.060631394
6.156978434,4.398148537,-8.854057312,-1.678335428
6.161978434,3.962403774,-8.401553154,-2.296039343
6.1669784,3.363853455,-8.059182167,-2.920926094
6.1719784,2.911349297,-7.503727436,-3.062183857
6.1769784,2.501940727,-7.151779652,-2.748543501
6.181978433,1.666364431,-7.15896225,-3.866635799
6.186978266,0.7613561153,-7.427113056,-3.943250179
6.191978266,-0.3543418646,-7.474997044,-1.999158382
6.196978232,-0.7924807668,-7.482179642,0.7924807668
6.201978198,-0.9121908545,-7.728782177,2.545036316
6.206978564,-1.335964561,-7.97299099,2.923320293
6.21197923,-1.628057122,-8.162133217,2.67671752
6.216979263,-1.618480325,-8.219594002,1.987187386
6.221979296,-1.015141487,-8.052000046,1.56101954
6.226979329,-0.2250549644,-7.606678009,1.640028119
6.231979329,1.242590666,-6.450278759,1.719036818
6.236979329,1.810016513,-5.693710804,1.462857246
6.241979295,2.511517525,-4.666299343,0.7685387731
6.246979295,2.870647907,-4.005499363,0.316034615
6.251979295,3.055001259,-3.579331636,0.06224924326
6.256979328,3.41892004,-3.454833031,-0.2298433632
6.261979361,3.531447411,-3.555389643,-0.586579442
6.266979361,3.471592426,-3.833117008,-0.7374141216
6.271979361,3.356670856,-4.400542736,-0.6775590777
6.276979361,3.205836058,-4.79319191,-0.5746083856
6.281979361,2.825158119,-5.322609425,-0.2681505978
6.286979361,2.331952572,-5.499780655,0.1699883193
6.291979327,1.417367458,-5.720046997,0.9504981041
6.296979327,0.8451532125,-5.863699436,1.630451322
6.301979327,0.3591302633,-5.918766022,2.178723574
6.30697936,-0.2130839527,-5.949890614,2.264914751
6.31197936,-0.5147533417,-5.976226807,2.106897593
6.31697936,-0.4285621047,-5.973832607,1.900996208
6.321979326,0.2011129409,-6.021716595,1.960851192
6.326979326,0.6200982332,-6.119878769,2.164358377
6.331979326,1.194706678,-6.37127018,2.592920542
6.336979526,1.290474772,-6.603507519,2.904166698
6.341979526,0.940921247,-6.704063892,2.985569477
6.346979526,-0.09337386489,-6.584353924,2.817975283
6.351979526,-0.988805294,-6.450278759,2.959233284
6.356979526,-0.6560112834,-6.857293129,3.857059002
6.361979526,0.6967126727,-8.272266388,5.037699699
6.366979492,1.034295082,-9.112630844,5.839757442
6.371979492,1.917755604,-11.35120964,7.52527523
6.376979492,2.358288765,-12.79970169,8.68406868
6.381979525,2.013523579,-15.11998272,10.75265884
6.386979558,0.9169792533,-16.47031212,11.29374886
6.391979558,-0.7948749661,-17.94514084,11.09742451
6.396979524,-1.881842494,-18.23005104,10.48929691
6.40197949,-2.628833532,-18.51256561,10.86039829
6.406979456,-2.123656988,-18.29708862,11.90427017
6.411979422,-0.9576807022,-16.76479912,12.47409058
6.416979422,-0.2561795712,-15.34503746,12.88349819
6.421979455,0.940921247,-12.99842072,14.0279274
6.426979488,1.604115129,-11.51640987,14.21706867
6.431979521,1.879448295,-9.342473984,12.44536018
6.436979521,1.41257906,-8.473379135,8.111854553
6.441979521,0.8140285611,-8.329727173,2.104503393
6.446979487,0.8523358107,-8.533234596,-4.163516521
6.451979487,1.283292055,-8.6074543,-9.462183952
6.456979487,1.309628367,-8.272266388,-11.17882729
6.46197952,2.171540976,-8.01129818,-10.59943008
6.46697952,2.621650934,-7.700051785,-9.141361237
6.47197952,3.315969467,-6.692092896,-4.721365929
6.476979486,4.702212334,-6.012139797,0.1556231081
6.481979452,8.418312073,-5.202899456,11.12376022
6.486979418,7.910741806,-5.636250019,14.43254757
6.491979418,3.588908434,-7.520486832,11.40388203
6.496979451,-0.6943184733,-9.847650528,6.730400085
6.501979484,-3.969586372,-11.39669895,2.990357876
6.506979517,-5.693710804,-12.33283234,0.3399766386
6.51197955,-5.856516838,-12.69914532,-0.3878606856
6.51697955,-4.862623692,-12.59140587,-0.4309563041
6.521979516,-1.656787634,-12.1819973,-0.1675941199
6.526979482,0.5722141862,-11.51162148,0.6129156351
6.531979482,3.871424198,-10.75265884,1.838746905
6.536979482,5.839757442,-10.70477486,2.128445387
6.541979515,6.830956936,-11.29614258,2.303221941
6.546979515,7.52766943,-12.4764843,3.509899616
6.551979515,7.319374084,-14.30086613,6.356904984
6.556979515,6.347328186,-16.10878754,7.580341816
6.561979515,4.09408474,-17.62671089,8.317755699
6.566979515,2.602497339,-17.97865868,8.159738541
6.571979481,0.7422025204,-17.90922737,6.897994518
6.576979481,0.2130839527,-17.0185833,4.925172329
6.581979481,0.1053448766,-15.21575069,2.93529129
6.586979514,0.08619125932,-13.03912163,1.477222443
6.591979514,0.5075707436,-11.09742451,0.7996633649
6.596979514,1.242590666,-9.478943825,0.6105214357
6.60197948,2.296039343,-8.042423248,0.2250549644
6.60697948,2.779668093,-7.388805866,-0.2633621991
6.61197948,3.088520288,-6.416759968,-1.678335428
6.616979513,2.966415882,-5.911583424,-2.612074137
6.621979513,2.616862535,-5.157409668,-3.665522814
6.626979513,2.456450939,-4.838681698,-3.823540211
6.631979513,2.434903145,-4.503493309,-3.05021286
6.636979513,2.533065319,-4.417302132,-2.011129379
6.641979513,2.52827692,-4.285621166,-0.7350199223
6.646979479,2.45166254,-4.165910721,0.5051765442
6.651979445,1.790862918,-4.735731125,1.59932673
6.656979445,1.446097851,-5.411195278,2.152387381
6.661979445,1.235408068,-7.027281284,3.440467834
6.666979478,1.15400517,-8.109460831,4.474762917
6.671979478,0.8810662031,-9.981725693,6.26831913
6.676979478,0.5602431893,-11.57387066,7.659350395
6.681979444,0.2609679997,-13.17798519,8.863634109
6.68697941,0.1292868853,-14.66717911,9.596260071
6.691979376,-0.02394201607,-15.9723177,9.555558205
6.696979376,-0.3758896589,-16.84859657,8.717587471
6.701979409,-0.9313444495,-16.97788239,6.799831867
6.706979442,-1.053448796,-16.61157036,5.885247231
6.711979475,-0.7829039693,-15.31151867,5.207687855
6.716979475,-0.5650315881,-14.29607773,5.099948883
6.721979475,-0.2346317619,-12.4764843,5.305850029
6.726979441,-0.1149216816,-10.89870548,5.219658852
6.731979441,0.07900865376,-9.24191761,4.807557106
6.736979441,0.3399766386,-7.89637661,4.79319191
6.741979474,0.8283938169,-6.993762493,5.097554684
6.746979474,1.592144132,-6.586748123,5.564424038
6.751979474,2.592920542,-6.744765282,5.966650009
6.75697944,3.179499865,-7.123049259,6.174945354
6.761979406,3.830722809,-8.121431351,6.383241177
6.766979372,3.964797974,-8.834903717,6.421548367
6.771979372,4.005499363,-9.917082787,6.89081192
6.776979372,4.237737179,-10.75026512,7.747935772
6.781979405,4.980238914,-11.58344746,8.286631584
6.786979438,5.878064632,-12.43338871,8.052000046
6.791979471,6.620266914,-13.30727196,6.6753335
6.796979471,6.706458092,-13.98483181,5.521328449
6.801979471,6.455067158,-14.36311531,3.823540211
6.806979437,6.086359978,-14.30565453,2.999934673
6.811979437,5.435137272,-13.45810699,1.766920805
6.816979437,4.92038393,-12.56028175,0.5650315881
6.82197947,4.726154327,-11.69597435,-0.3303998411
6.82697947,4.472368717,-10.934618,-1.446097851
6.83197947,4.371812344,-10.00088024,-2.209848166
6.83697947,3.780444384,-9.11502552,-2.571372509
6.84197947,2.659958124,-7.939472198,-2.67432332
6.84697947,2.003946781,-7.427113056,-2.825158119
6.851979436,0.6320692301,-6.943484306,-2.08295536
6.856979436,0.06464344263,-6.651391506,-0.7661445141
6.861979436,-0.5219359994,-6.56041193,1.403002143
6.866979469,-1.096544385,-6.627449512,2.56658411
6.871979469,-1.812410712,-6.646603107,2.889801502
6.876979469,-2.300827742,-6.514922142,2.607285738
6.881979435,-2.322375536,-6.182127953,1.900996208
6.886979401,-2.085349798,-5.51893425,0.9552865028
6.891979367,-1.18752408,-4.378994942,-0.06703764945
6.896979367,-0.3711012602,-3.593696833,-0.2896983922
6.901979367,1.04147768,-2.473210335,0.1580173075
6.9069794,1.733402014,-2.059013367,0.5243301988
6.911979433,2.920926094,-2.080561161,0.9840168953
6.916979466,3.646369219,-2.640804529,1.11569798
6.921979466,4.082113743,-3.454833031,1.146822572
6.926979466,4.436455727,-4.331110954,1.209071875
6.931979432,4.515464306,-5.121496677,1.319205165
6.936979432,4.465186119,-5.758354187,1.493981838
6.941979432,4.218583584,-6.40957737,1.695094824
6.946979465,4.034229755,-6.672939301,1.838746905
6.951979465,3.646369219,-6.950666904,1.924938202
6.956979465,3.294421434,-6.914753914,2.056619167
6.961979431,2.834734917,-6.536469936,2.291250944
6.966979397,2.30801034,-5.954679012,2.511517525
6.971979363,1.927332401,-5.279513836,2.767697096
6.976979363,1.477222443,-4.639962673,2.995146275
6.981979396,0.7565677166,-4.01747036,3.15795207
6.986979429,0.3280056417,-3.464409828,3.256114244
6.991979462,-0.2729389966,-2.928108692,3.177105665
6.996979462,-0.6775590777,-2.705447912,3.043030262
7.001978795,-1.577778935,-2.384624958,2.894589901
7.006978761,-2.257732153,-2.300827742,2.873042107
7.011978727,-3.612850428,-2.212242365,2.595314741
7.016978727,-4.446032524,-2.233790159,1.67115283
7.02197876,-3.952826977,-2.93529129,1.122880578
7.026978793,-2.260126352,-4.654327869,1.307234168
7.031978793,-0.6416460276,-6.665756702,1.996764183
7.036978793,-0.1029506698,-7.558794022,2.348711967
7.041978793,0.6679822803,-9.167697906,2.317587137
7.046978793,0.9002198577,-10.41507626,2.41574955
7.051978793,0.8714894056,-12.26579475,3.8642416
7.056978959,1.290474772,-13.97764874,5.016151905
7.061978292,1.522712231,-15.89091492,5.902006626
7.066978292,1.170764685,-17.82303619,6.845322132
7.071978325,0.248996973,-19.65460014,7.961019993
7.076977658,-0.5195417404,-21.41912651,9.364022255
7.081977658,-1.707065821,-22.95141602,11.66724396
7.086977624,-2.52827692,-22.86283112,12.94574833
7.09197759,-3.572149038,-20.96183395,14.68393803
7.096977556,-3.768473387,-18.77832222,15.11279964
7.101977556,-2.829946518,-14.07820511,14.20509815
7.106977589,-1.946485996,-12.03595161,12.28494835
7.111977622,-0.7350199223,-9.816526413,9.646537781
7.116977288,0.6105214357,-8.609848976,7.166144848
7.121976588,1.939303398,-7.633014202,4.833893299
7.126976588,3.045424461,-6.658574104,2.612074137
7.131976554,3.873818398,-5.571606636,0.3136404157
7.13697652,3.938461781,-5.068824291,-1.122880578
7.14197652,3.813963413,-5.097554684,-4.041412354
7.146976553,4.077325344,-5.372888088,-5.727229595
7.151977253,4.560954094,-6.756736279,-7.728782177
7.156977253,5.296273232,-8.408735275,-8.279448509
7.161977253,5.894824028,-9.423876762,-7.779060364
7.166977219,5.846940041,-9.375992775,-5.22444725
7.171977185,6.462249756,-8.612242699,1.280897856
7.176977151,7.963414192,-8.188468933,12.11735439
7.181977151,5.755959988,-10.16129112,16.06329727
7.186977184,2.576161146,-11.55711079,15.51741982
7.191977217,-2.748543501,-12.95532513,12.96250725
7.19697725,-5.447108269,-13.16122627,9.972148895
7.20197725,-6.143820763,-13.27854156,6.744765282
7.20697705,-5.430348873,-12.7805481,3.435679436
7.211977683,-3.529053211,-11.83962631,0.2130839527
7.216977683,-0.7996633649,-10.98250294,-3.392583847
7.221977683,1.953668594,-10.81490803,-6.845322132
7.226978383,3.090914488,-11.21234608,-7.403171062
7.231978383,4.295197964,-10.79336071,-5.937919617
7.236978383,5.121496677,-10.01524544,-4.740519524
7.241978383,7.33613348,-9.531616211,-2.631227732
7.246978383,8.937853813,-9.598653793,-1.043871999
7.251978383,10.34085655,-9.996091843,2.04464817
7.256978349,9.047987938,-11.01362705,4.12999773
7.261978315,6.744765282,-13.00320911,6.139032364
7.266978681,4.30956316,-14.9068985,8.56914711
7.271979414,1.209071875,-16.59241676,10.78857231
7.276979447,-0.3519476354,-17.12392998,11.07587624
7.281979447,-1.496376038,-16.74085617,9.519645691
7.286979447,-1.44849205,-15.65867805,7.688080788
7.291979413,-1.845929503,-13.38388634,4.276044369
7.296979379,-1.939303398,-11.94018269,2.45166254
7.301979345,-1.209071875,-10.73350525,1.63523972
7.306979345,0.0,-9.754277229,1.572990537
7.311979378,1.26413846,-8.842085838,1.740584612
7.316979411,2.422932148,-8.020874977,1.465251446
7.321979444,3.809175014,-7.23318243,0.3040636182
7.326979444,4.297592163,-6.876446724,-0.2896983922
7.331979444,4.580107689,-6.258742332,-0.8786720037
7.33697941,4.630385876,-5.942708015,-1.084573388
7.34197941,4.465186119,-5.494992256,-1.434126854
7.34697941,4.01747036,-5.245995045,-1.549048543
7.351979443,3.390189648,-5.044882298,-1.458068848
7.356979443,2.815581083,-5.059247494,-1.165976286
7.361979443,2.343923569,-5.439925671,-0.7972691655
7.366979409,1.881842494,-6.021716595,-0.3208230138
7.371979375,1.194706678,-6.716034889,0.3974374831
7.376979341,0.7158663273,-7.046434879,1.051054597
7.381979341,0.1388636976,-7.623437405,2.521094322
7.386979341,-0.05506663769,-7.980173588,3.488351822
7.391979374,-0.3519476354,-8.600272179,4.510675907
7.396979407,-0.6129156351,-9.107842445,4.704606533
7.40197944,-0.7900865674,-9.632172585,4.774038315
7.40697944,-0.8906430602,-10.1445322,4.879383087
7.41197944,-0.7661445141,-10.61379528,4.848258495
7.416979406,-0.3639186621,-11.01123333,4.680664539
7.421979406,0.05746084079,-11.30571938,4.821922302
7.426979406,0.3136404157,-11.46852589,5.135861874
7.431979439,0.9481038451,-11.66963863,5.760748386
7.436979439,1.364694953,-11.72231102,6.148609161
7.441979439,1.606509328,-11.48767948,6.174945354
7.446979439,1.692700624,-11.14530849,5.753565788
7.451979439,1.800439715,-10.72153473,5.444714069
7.456979439,2.056619167,-10.43422985,5.720046997
7.461979405,2.501940727,-10.31451988,6.756736279
7.466979405,2.590526342,-10.43901825,7.654561996
7.471979405,2.406172752,-10.77420712,8.813355446
7.476979438,2.236184359,-11.03756905,8.992920876
7.481979438,1.493981838,-11.45894814,8.119037628
7.486979438,1.312022567,-11.70555115,7.355287075
7.491979404,1.039083481,-12.05031681,7.039252281
7.49697937,1.371877551,-12.55549335,7.23318243
7.501979336,1.874659896,-12.99123764,7.319374084
7.506979336,2.358288765,-13.30248356,7.182904243
7.511979336,2.978386879,-13.24741745,6.081571579
7.516979369,3.325546265,-12.99363232,5.054459095
7.521979402,3.689464808,-12.43817711,3.078943491
7.526979435,3.744531393,-11.8683567,2.003946781
7.531979435,3.531447411,-11.08784771,0.1221042871
7.536979435,3.337517262,-10.37916374,-1.055842996
7.541979401,3.294421434,-9.809343338,-1.867477298
7.546979401,3.165134668,-9.028834343,-2.346317768
7.551979401,2.940079689,-8.154950142,-2.726995707
7.556979434,2.662352324,-7.484573841,-3.095702887
7.561979434,2.463633537,-6.615478516,-2.741360903
7.566979434,2.504334927,-6.129455566,-1.900996208
7.5719794,2.181117773,-6.036081791,-0.6512228847
7.576979366,1.910573006,-5.945102215,0.7805097699
7.581979332,1.161187768,-5.758354187,2.894589901
7.586979332,0.8403648138,-5.638644218,3.773261786
7.591979365,0.4022258818,-5.547664642,3.378218651
7.596979398,0.0191536136,-5.509357452,2.585737944
7.601979431,0.4213795066,-5.542876244,1.762132406
7.606979431,1.347935557,-5.581183434,1.362300754
7.611979431,2.655169725,-5.78469038,1.359906554
7.616979397,3.452438831,-6.091148376,1.37666595
7.621979397,4.378994942,-6.766313076,1.446097851
7.626979397,4.630385876,-7.123049259,1.434126854
7.63197943,4.841075897,-7.510910034,1.477222443
7.636979463,4.946720123,-7.56597662,1.716642618
7.641979463,4.915595531,-7.644985199,2.04464817
7.646979463,4.687847137,-7.688080788,2.41574955
7.651979463,4.299986362,-7.656956196,2.889801502
7.656979463,3.833117008,-7.587524414,3.289633036
7.661979463,3.220201254,-7.237970829,3.485957623
7.666979429,2.784456491,-6.941090107,3.42131424
7.671979429,2.138022184,-6.325780392,3.071760893
7.676979429,1.515529633,-5.789478779,2.722207308
7.681979462,1.237802267,-5.286696434,2.626439333
7.686979462,1.091755986,-4.802768707,2.590526342
7.691979462,1.240196466,-4.319139957,2.631227732
7.696979428,1.577778935,-3.830722809,2.782062292
7.701979394,1.606509328,-3.349488258,2.93768549
7.70697936,1.479616642,-3.124433279,2.942473888
7.71197936,0.9983820915,-2.920926094,2.85867691
7.716979393,0.6177040339,-2.863465309,2.760514498
7.721979426,-0.323217243,-2.79163909,2.533065319
7.726979459,-0.9840168953,-2.71502471,2.240972757
7.731979459,-1.723825216,-2.801215887,1.711854219
7.736979459,-1.778891921,-3.323152065,1.472434044
7.741979425,-1.340752959,-4.177882195,1.790862918
7.746979425,-0.7254431248,-5.0353055,2.427720547
7.751979425,-0.3615244627,-6.067206383,2.952050686
7.756979458,-0.3112462163,-6.663362503,3.258508444
7.761979491,-0.2920926213,-7.867646217,4.029441357
7.766979491,-0.2226607651,-8.846874237,4.49870491
7.771979457,-0.3208230138,-10.77181244,4.915595531
7.776979423,-0.739808321,-12.70393372,5.07361269
7.781979389,-0.9911994934,-15.15828991,5.401618481
7.786979355,-1.094150186,-17.67938423,5.602731228
7.791979355,-1.204283476,-19.70487785,5.942708015
7.796979388,-1.149216771,-21.1629467,6.569988728
7.801979421,-0.8212111592,-21.70164299,7.767089367
7.806979454,-0.7781155705,-21.10069847,8.621819496
7.811979454,-1.036689281,-18.63945961,9.950601578
7.816979454,-1.453280449,-16.62833023,10.58985329
7.82197942,-2.092532396,-13.10615921,10.61379528
7.82697942,-2.284068346,-10.81011963,9.493309021
7.83197942,-2.097320795,-9.162909508,7.580341816
7.836979453,-1.577778935,-7.958625793,5.425560474
7.841979453,-0.7924807668,-7.415142059,4.192247391
7.846979453,0.7852981687,-6.998550892,2.8993783
7.851979453,2.906560898,-6.256348133,1.280897856
7.856979453,3.761290789,-5.755959988,0.6703764796
7.861979453,5.394435883,-4.95869112,0.3878606856
7.866979419,6.668150902,-4.570530891,0.739808321
7.871979419,8.863634109,-4.426878929,1.436521053
7.876979419,10.30015469,-4.879383087,1.59932673
7.881979452,11.27220058,-5.657797813,1.853112102
7.886979485,11.43500614,-6.558017731,2.432508945
7.891979485,10.34803867,-7.388805866,3.131615877
7.896979451,9.342473984,-8.176498413,3.517082214
7.901979417,7.422324657,-9.296984673,4.048594952
7.906979383,6.23001194,-9.936236382,4.685452938
7.911979349,4.398148537,-10.77420712,6.452672958
7.916979349,2.434903145,-11.60499477,8.135796547
7.921979382,0.2082955539,-12.67999172,9.522039413
7.926979415,-1.738190413,-13.78850651,9.608230591
7.931979448,-3.201047659,-14.66717911,8.162133217
7.936979448,-4.165910721,-15.23490429,6.110301971
7.941979448,-5.190928459,-15.46235275,4.01507616
7.946979414,-5.099948883,-15.35940266,2.925714493
7.951979414,-4.163516521,-14.83746624,0.8283938169
7.956979414,-3.691859007,-14.38466263,-0.4525041282
7.961979447,-3.371036053,-13.10376549,-2.485181332
7.966979447,-3.098097086,-12.15087318,-3.682282209
7.971979447,-2.403778553,-10.72871685,-5.466261864
7.976979413,-1.292868972,-9.56274128,-6.203675747
7.981979379,0.1723825186,-8.46619606,-6.376058578
7.986979345,1.687912226,-7.688080788,-6.263530731
7.991979345,3.521870613,-6.986579895,-5.380070686
7.996979378,4.683058739,-6.603507519,-3.801992416
8.001979411,7.015310287,-6.359299183,1.912967205
8.006979444,7.793426037,-7.668927193,6.325780392
