Time (s),Acceleration x (m/s^2),Acceleration y (m/s^2),Acceleration z (m/s^2)
10.00056444,5.888138294,-11.21157074,3.076571703
10.00532829,6.286543369,-11.23011494,2.815155745
10.01011876,6.436094761,-10.97827053,2.478366137
10.0148959,5.47597456,-10.45603657,2.190629244
10.01965975,3.467200041,-9.650852203,1.700698733
10.02445017,1.510469317,-8.595617294,1.220937729
10.0292273,0.0484546572,-7.403991699,0.8386843204
10.03399116,-0.8195417523,-6.273981094,0.3966103494
10.03878162,-1.399203062,-5.243870735,0.1591227055
10.04355876,-1.907677889,-4.214358807,0.1178465188
10.04832261,-2.137987137,-3.32901454,0.2715853751
10.05311303,-2.071586132,-2.605783939,0.5874379873
10.05789022,-2.089532375,-2.080559254,1.057627559
10.06265402,-2.429911375,-1.720439434,1.534397483
10.06744449,-2.861217737,-1.432702541,1.996810555
10.07222162,-3.217149973,-1.135394335,2.286940336
10.07698548,-3.594019651,-0.7357929349,2.317448616
10.08177595,-3.719642878,-0.2739782035,2.264806747
10.08655308,-3.769891977,0.2608176768,2.111067772
10.09131688,-3.848257065,0.747158885,1.9812572
10.09610735,-3.893122435,1.190429211,1.846660852
10.10088454,-3.88056016,1.600200176,1.783849239
10.10564834,-3.638885021,1.894517303,1.835294962
10.11043881,-3.254238844,2.030309916,1.862214208
10.11521595,-2.544168711,2.026720762,1.939980984
10.11997975,-1.892722726,1.908276081,1.955534339
10.12477022,-1.467996716,1.630110383,1.948953986
10.12954735,-1.186241865,1.211366415,1.875972986
10.13431121,-0.7722834945,0.7304090858,1.696511269
10.13910168,-0.3529413342,0.2793620527,1.483550072
10.14387881,-0.2009970993,-0.1639083475,1.252642632
10.14864267,-0.1477568001,-0.6263213158,1.171286702
10.15343308,-0.3553341627,-1.084546804,1.143769264
10.15821022,-0.7441678643,-1.581655741,1.213759303
10.16297407,-1.221535921,-2.194816589,1.312463164
10.16776454,-1.447657704,-2.787638426,1.309472203
10.17254173,-1.479362607,-3.510869026,1.21854496
10.17730553,-1.288534999,-4.284946918,0.9008977413
10.18209595,-0.8566305041,-5.136792183,0.3332005441
10.18687313,-0.4588237405,-6.132804394,-0.5270192027
10.19163694,-0.02093719877,-7.378866673,-1.920240164
10.19642741,0.4079762697,-9.044271469,-4.210171223
10.20120454,1.319043517,-11.24686432,-7.448258877
10.2059684,2.982653379,-14.15055466,-11.63450146
10.21075886,5.215157032,-18.12682724,-17.41197205
10.215536,7.3980093,-24.04906464,-23.9318161
10.2202998,9.050253868,-34.50450134,-33.92902756
10.22509027,17.28455353,-50.97789001,-40.46263123
10.2298674,19.49612045,-62.61000061,-34.31427383
10.23463126,7.706683636,-60.26921844,-22.12224388
10.23942173,1.686341763,-46.37409973,-13.4530468
10.24419886,2.654238462,-31.66960526,-10.67557812
10.24896272,2.765504837,-21.2973175,-8.907281876
10.25375319,2.147558212,-14.0680027,-7.249056339
10.25853032,1.092921734,-8.84387207,-5.792425632
10.26329412,-0.09571290761,-4.511667252,-4.897509575
10.26808459,-1.110867858,-0.4576273263,-3.824328899
10.27286173,-1.619940877,2.281556368,-2.364706993
10.27762558,-1.853839397,4.058227062,-0.7429714203
10.282416,-2.105085611,5.246861935,1.566102386
10.28719319,-2.200798512,6.035895348,2.71286273
10.29195699,-2.356332064,6.46421051,3.217748165
10.29674746,-1.920838356,6.074778557,4.189234257
10.30152459,-1.055832982,4.761118889,4.886742115
10.30628845,0.3571287692,2.856431961,5.447260857
10.31107886,1.141974568,1.056431174,5.203791142
10.31585605,1.648056626,-0.536590457,4.612763882
10.32061985,2.263011932,-2.2259233,3.952943087
10.32541032,2.882753134,-4.237689018,3.062813044
10.33018746,3.146561861,-6.698707104,2.137388945
10.33495131,3.612564087,-9.741779327,1.307079315
10.33974178,4.185046673,-13.46441269,0.2793620527
10.34451892,4.185645103,-17.96830368,-1.161715388
10.34928277,5.050650597,-23.85404968,0.1722832322
10.35407324,4.968098164,-30.7830658,1.794018745
10.35885037,3.508476257,-38.33720779,-6.826124668
10.36361423,0.1369891018,-43.822155,-19.6277256
10.36840464,-3.628117323,-42.08197403,-19.0624218
10.37318178,-3.870390654,-34.14199066,-10.8364954
10.37794563,-4.099503517,-24.39961243,-3.326621771
10.3827361,-5.046463013,-15.95354652,1.044467092
10.38751324,-5.174479008,-9.556933403,3.017349243
10.39227704,-4.310669899,-4.800002098,3.614358664
10.39706751,-3.167499065,-1.366899967,3.376272678
10.40184464,-2.275574446,1.107278705,2.663809776
10.4066085,-2.62851572,2.773879766,1.805384636
10.41139897,-4.267599106,3.473181963,1.055832982
10.4161761,-6.120242119,3.410968781,0.6616154313
10.42093991,-7.227520943,2.792423964,0.4618147612
10.42573037,-7.488936901,2.015953064,0.2189432681
10.43050756,-7.36151886,1.327418327,0.3577269912
10.43527136,-7.111468792,0.7160521746,0.5108676553
10.44006183,-6.889534473,0.1674975902,0.7495517135
10.44483897,-6.462415695,-0.4869394004,1.002592683
10.44960282,-5.63090992,-1.193420291,1.224527001
10.45439329,-5.055436134,-2.073380709,1.452443361
10.45917043,-4.78385067,-3.132802963,1.825723648
10.46393423,-4.920241356,-4.405784607,2.154138565
10.4687247,-5.275575638,-5.803791523,2.511865616
10.47350183,-5.777470112,-7.346563816,2.836691141
10.47826569,-6.288337708,-9.053842545,3.215355396
10.48305616,-6.656832695,-10.82752228,3.415156126
10.48783329,-6.651448727,-12.40319633,3.459423304
10.49259709,-6.156732559,-14.16012573,3.247060299
10.49738756,-5.027320385,-16.10369682,2.513062
10.5021647,-3.074178934,-17.78405571,1.385444283
10.50692855,-0.8829515576,-19.1377964,0.3242274821
10.51171902,0.8805587292,-19.86521339,-0.3565305769
10.51649616,2.36111784,-19.68814468,-0.142971158
10.52125996,2.79421854,-18.54616928,1.240678549
10.52605043,2.132004976,-16.98246002,2.778665304
10.53082761,1.363310695,-15.45284843,3.918845177
10.53559142,1.172483087,-14.32104397,4.447061062
10.54038188,1.541576028,-13.44885921,4.56430912
10.54515902,2.100300074,-12.70528984,4.450650215
10.54992287,2.602194548,-12.03888893,4.495515347
10.55471329,2.996412039,-11.47478104,4.670789719
10.55949048,3.254837036,-10.83769226,4.481756687
10.56425428,3.400201082,-10.36032391,4.356133461
10.56904475,3.73160696,-9.83868885,3.658027649
10.57382188,4.088137627,-9.172885895,2.307279348
10.57858574,4.198207378,-8.670990944,1.154536963
10.58337621,4.339384079,-8.467600822,0.1938186288
10.58815334,4.314259052,-8.313263893,-0.7567301393
10.59291715,4.156930923,-8.264809608,-1.596012712
10.59770767,3.88056016,-8.178668022,-2.376072884
10.60248475,3.541975737,-8.068597794,-3.132802963
10.6072486,3.105883837,-7.920242786,-3.625724554
10.61203907,2.606980324,-7.708477974,-4.145565033
10.61681621,2.047657967,-7.521838188,-4.540979385
10.62158006,1.612164259,-7.378268719,-4.846662045
10.62637053,1.101296663,-7.201199532,-5.035695076
10.63114767,0.5258227587,-6.995417118,-5.028516769
10.63591147,0.1878365725,-6.813562393,-4.8346982
10.64070199,-0.02931207791,-6.563512325,-4.411168575
10.64547907,-0.1968096644,-6.313462734,-3.729214191
10.65024293,-0.1860419661,-6.126224041,-2.639881611
10.6550334,-0.07417750359,-5.953342915,-1.296311617
10.65981053,0.1010967568,-5.703292847,0.237487644
10.66457438,0.2590230405,-5.423930645,2.14696002
10.6693648,0.37986058,-5.097310543,4.151547432
10.67414194,0.3391826153,-4.962714195,5.41435957
10.67890579,0.185443759,-5.204389095,5.789434433
10.68369626,0.08554340899,-5.729613781,5.473581791
10.6884734,0.09750752151,-6.321837425,4.768297195
10.69323725,0.2273181528,-6.822535515,3.985844374
10.69802772,0.3619144261,-7.216753006,3.279961586
10.70280485,0.4642075896,-7.562515736,2.684746981
10.70758199,0.3996013701,-7.900502205,2.022533417
10.71235912,0.2763710022,-8.251648903,1.097707391
10.71713631,0.1399801224,-8.621937752,-0.37986058
10.72190011,-0.07716853172,-8.992825508,-2.624328136
10.72669058,-0.3020938635,-9.406186104,-5.449055195
10.73146772,-0.560518682,-9.824331284,-9.099306107
10.73623157,-0.6544370055,-10.2711916,-12.14596748
10.74102199,-0.5324030519,-10.63190937,-12.75135231
10.74579918,-0.4342973232,-10.86341476,-11.59561825
10.75056298,-0.4283152521,-11.06142044,-9.953543663
10.75535345,-0.3918247223,-11.22652531,-7.962117195
10.76013063,-0.03649054468,-11.2510519,-5.741578102
10.76489444,0.784845829,-11.0566349,-3.687937975
10.76968485,1.82632184,-10.72762203,-2.023131609
10.77446204,2.745764017,-10.41775131,-0.8189435601
10.77922584,3.373281717,-10.3346014,-0.005982056726
10.78401631,3.752544165,-10.51226807,0.4618147612
10.78879345,4.089334011,-10.88195896,0.8440681696
10.7935573,4.364508629,-11.33480072,1.222732425
10.79834777,4.615156651,-11.84985638,1.548156261
10.8031249,4.927420139,-12.34098244,1.829312921
10.80788876,5.340181828,-12.79262829,2.106282234
10.81267923,5.818148136,-13.08515072,2.339582443
10.81745636,6.12921524,-13.1521492,2.548954248
10.82222017,6.311069489,-13.06959724,2.706282377
10.82701063,6.24407053,-12.77647686,2.849851847
10.83178777,5.880959988,-12.37268734,2.899502754
10.83655162,5.342574596,-12.03171062,2.830111027
10.84134209,4.683351994,-11.8211422,2.574677229
10.84611923,4.091128349,-11.81755257,2.131406784
10.85089636,3.483351469,-11.96770287,1.568495274
10.8556735,2.824727058,-12.03171062,1.077368379
10.86045063,2.388635159,-12.1292181,0.6047859192
10.86521449,1.819741607,-12.32842064,0.03708875179
10.87000496,1.156331539,-12.49831104,-0.3774677813
10.87478209,0.5928218365,-12.58624744,-0.8159525394
10.87954595,0.109471634,-12.64965725,-1.297508121
10.88433636,-0.05024927482,-12.79920864,-1.849053741
10.88911355,-0.08075776696,-12.99123192,-2.232503414
10.89387741,-0.0005982056609,-13.21256828,-2.530410051
10.89866787,0.4408775866,-13.40937805,-2.748754978
10.90344501,1.375274777,-13.59482193,-2.561516523
10.90822214,2.692523718,-13.78505135,-1.939382792
10.91299928,4.097110748,-13.96929836,-1.130608678
10.91777642,5.310869694,-14.14038563,-0.3212364316
10.92254027,6.329015732,-14.33540058,0.3314059377
10.92733074,7.100701332,-14.48375511,0.4378865361
10.93210787,7.550551891,-14.46760368,0.05204389244
10.93687168,7.73300457,-14.36531067,-0.3768695593
10.94166214,7.23529768,-14.27019596,-0.8344969153
10.94643928,6.171089649,-14.18584919,-1.299302697
10.95121642,4.740181446,-13.95793247,-1.748555183
10.9559936,3.366701365,-13.56132221,-2.057827473
10.96077074,2.098505497,-13.0390892,-2.209771633
10.96553454,0.8841479421,-12.2859478,-2.021935225
10.97032506,-0.3714857101,-11.36889839,-1.546361685
10.9751022,-1.59003067,-10.55773163,-1.185045362
10.979866,-2.378465652,-10.10728264,-0.6340979934
10.98465647,-2.926422119,-10.01755238,0.1076770201
10.98943366,-3.35413909,-9.970293999,0.9547362328
10.99419746,-3.671188116,-10.02532864,1.920838356
10.99898787,-3.879363775,-10.31964588,2.685345173
11.00376506,-3.646661758,-11.10927773,3.063411236
11.00852886,-3.467200041,-12.09631634,3.05324173
11.01331933,-3.941577196,-12.969697,2.845664263
11.01809647,-4.760520458,-13.69890976,2.322832584
11.02286032,-5.673980713,-14.17268848,1.372882009
11.02765079,-6.39900589,-14.36172104,0.1627119333
11.03242793,-6.958926678,-14.31924915,-1.202393413
11.03719178,-7.228717327,-14.22772312,-2.526222467
11.0419822,-7.317849636,-13.97169113,-3.744767427
11.04675938,-7.06600523,-13.63430309,-4.355535507
11.05152319,-6.653243542,-13.22333622,-4.261617184
11.05631366,-5.997610092,-12.6245327,-4.183850288
11.06109079,-5.192425251,-12.16929817,-3.651447296
11.06586793,-4.642673969,-11.72542953,-2.992224693
11.07064511,-4.796412945,-11.44726372,-1.585245013
11.07542225,-4.357928276,-11.36052418,0.2171486616
11.08018605,-3.657429457,-11.48973656,1.873580098
11.08497657,-3.149552822,-11.50349522,3.234498024
11.08975371,-2.101496458,-11.71286678,3.310470104
11.09451751,-0.9463613629,-11.88215923,1.533799291
11.09930798,-0.006580262445,-12.12443256,-1.307079315
11.10408511,0.7657032609,-12.29551888,-3.499503136
11.10884897,1.369890928,-12.36132145,-4.356731892
11.11363944,1.949552298,-12.46062374,-4.585246563
11.11841657,2.620738983,-12.63230896,-4.521238327
11.12318037,3.861417532,-12.84646702,-4.071985722
11.12797084,4.550550461,-12.63829136,-2.48733902
11.13274798,5.353940487,-12.53599739,-1.013360381
11.13751183,6.066403389,-12.42891884,0.5330012441
11.1423023,6.14357233,-12.25603771,2.183450699
11.14707944,5.964708805,-12.04487133,3.494119167
11.15184329,5.857629776,-11.72243786,4.055834293
11.15663376,5.419145107,-11.12602711,3.486940861
11.1614109,4.310669899,-10.11206818,2.378465652
11.16617475,2.748754978,-8.751151085,1.315454245
11.17096517,1.301695466,-7.472784996,0.4247260094
11.17574235,0.2673979402,-6.342774391,-0.1369891018
11.18050616,-0.5126622319,-5.352146149,-0.3690928817
11.18529662,-1.304686546,-4.56430912,-0.3559323549
11.19007376,-1.818545222,-3.953541279,0.03529413417
11.19483761,-1.726421595,-3.433700562,0.5048855543
11.19962803,-1.335793257,-2.917448997,0.9343972206
11.20440522,-1.111466169,-2.42572403,1.302293777
11.20916907,-1.220937729,-1.900499344,1.571486235
11.21395949,-1.55892396,-1.342971683,1.793420553
11.21873662,-2.050648928,-0.693320334,1.896311998
11.22350048,-2.438286304,-0.02991028316,1.907079697
11.22829095,-2.758924484,0.5718846321,1.822134495
11.23306808,-3.000001431,1.0863415,1.660020709
11.23783194,-3.126222849,1.573280931,1.506880045
11.2426224,-3.08973217,1.895713687,1.391426325
11.24739954,-3.015554667,2.054836512,1.227517962
11.25216334,-2.830709219,2.084746838,1.068395257
11.25695381,-2.474178553,1.974676847,0.9421738982
11.26173095,-2.050648928,1.744367719,0.8530412912
11.2664948,-1.649851203,1.384247899,0.8273184299
11.27128527,-1.353141189,0.9559326172,0.8548358679
11.27606241,-1.037886858,0.5186443329,0.9062815905
11.28083954,-0.7417750359,0.09990034252,0.9146564603
11.28561673,-0.4683950245,-0.3038884699,0.9182456732
11.29039386,-0.2961117923,-0.6693921089,0.912861824
11.295171,-0.1908276081,-1.016351461,0.902692318
11.29994813,-0.2470589429,-1.392622828,0.860219717
11.30472527,-0.3792623878,-1.773081541,0.8033902049
11.30948912,-0.5300102234,-2.279761791,0.7615157962
11.31427959,-0.685543716,-2.891726255,0.7052844763
11.31905673,-0.6801598072,-3.565903902,0.4899304509
11.32382058,-0.679561615,-4.322035789,0.1208375469
11.328611,-0.5324030519,-5.087738991,-0.4169493318
11.33338819,-0.4821537733,-5.968895912,-1.232303619
11.33815199,-0.3104687333,-7.008577347,-2.4173491
11.34294251,0.2572284341,-8.40299511,-4.454239368
11.34771965,1.39561379,-10.21077251,-7.573882103
11.35248345,2.395813704,-12.48993587,-12.50130177
11.35727392,3.529413462,-15.67837238,-18.67179298
11.36205105,6.20458889,-20.48196411,-24.27339172
11.36681485,13.46860027,-29.26362228,-30.6203537
11.37160532,28.31307411,-43.61697006,-32.60699463
11.37638251,31.29632568,-56.08177948,-25.93341255
11.38114631,10.72642612,-58.8072052,-21.62573242
11.38593678,-2.449054003,-49.95795059,-16.27956963
11.39071397,0.1124626622,-35.70151138,-13.09711456
11.39547777,1.606182218,-24.71486664,-11.14935684
11.40026824,1.095912814,-17.21097565,-8.930013657
11.40504537,-0.3864408433,-11.60279655,-7.179664135
11.40980918,-1.845464468,-6.938587666,-5.976074696
11.41459965,-3.262015581,-2.355733871,-4.935196877
11.41937683,-4.377070904,1.138983607,-4.139583111
11.42414063,-4.968098164,2.904886723,-2.665006161
11.4289311,-5.420939922,3.881158352,-0.6711867452
11.43370829,-5.907878876,4.341178417,0.8470591903
11.43847209,-6.412166595,4.710869789,1.890928149
11.44326256,-6.487540245,4.406383038,2.602194548
11.4480397,-5.328815937,3.190230846,3.182454109
11.4528035,-3.297309637,1.190429211,3.710669756
11.45759397,-1.707877159,-0.6646065116,3.492922783
11.46237116,-0.4235295951,-2.38624239,2.580060959
11.46713496,0.3445664644,-4.314857483,1.147358418
11.47192543,0.6000002623,-6.814758778,-0.4791627228
11.47670256,0.8644071817,-9.93918705,-2.431107759
11.48146642,1.393819213,-13.67079353,-5.032704353
11.48625688,2.401795626,-17.90250015,-7.334001541
11.49103402,3.151945591,-22.38126755,-7.713263988
11.49579782,3.914059639,-26.71526718,-5.997011662
11.50058829,3.23330164,-29.76312447,-4.483551502
11.50536543,0.6382854581,-30.32783127,-5.108676434
11.51012928,-0.1459621787,-28.00320435,-4.57806778
11.51491975,0.02572284266,-23.0656147,-1.064806104
11.51969688,-0.1830509305,-17.33001709,2.090130568
11.52446074,-0.9972088337,-12.33679581,3.875774384
11.52925121,-1.774278045,-8.388039589,4.208376884
11.53402834,-2.286940336,-5.609374523,3.427120209
11.53879214,-2.410170555,-3.850051641,2.164308071
11.54358267,-2.799004316,-2.704487801,1.378265858
11.5483598,-3.535395384,-2.243869543,0.97926265
11.5531236,-4.52781868,-2.1302104,0.6717849374
11.55791412,-5.665007591,-2.258226395,0.524028182
11.56269121,-6.610770702,-2.491526604,0.6299105883
11.56745506,-7.264011383,-2.753540754,0.9314061999
11.57224553,-7.503293514,-3.120240688,1.393819213
11.57702267,-7.495516777,-3.482155085,1.667199135
11.58178652,-7.136593342,-3.905086517,1.761715651
11.58657694,-6.497111797,-4.404588223,1.897508383
11.59135412,-6.095117569,-4.803591251,1.9585253
11.59613126,-5.67039156,-5.269593716,1.932204247
11.60090845,-5.350351334,-5.726622581,1.911865234
11.60568558,-5.067998409,-6.231508255,1.929811478
11.61046272,-4.741976261,-6.833303452,1.971685886
11.61523985,-4.459024906,-7.463811874,2.023729801
11.62001699,-4.176073551,-8.224131584,2.07098794
11.62478084,-3.896711588,-9.008976936,2.123031855
11.62957126,-3.546761274,-9.856036186,2.12183547
11.63434845,-3.116651535,-10.87119102,1.94715941
11.63911225,-2.516052961,-12.10289669,1.450648785
11.64390277,-1.72223413,-13.34836102,0.5934200287
11.64867985,-0.8775677085,-14.34796238,-0.1585244983
11.65344376,-0.1016949639,-15.22313786,-0.5802595019
11.65823418,0.6562315822,-15.86202145,-0.760917604
11.66301131,1.368096352,-15.97149277,-0.290129751
11.66777517,1.73060894,-15.65324783,0.8165507317
11.67256558,1.72223413,-15.11845207,2.059622049
11.67734277,1.840678811,-14.69970798,2.965305567
11.68210657,2.261815548,-14.39522076,3.577867985
11.68689709,2.854637384,-14.11466217,4.125824451
11.69167418,3.491726398,-13.71386433,4.324428558
11.69643803,4.381856441,-13.25324631,3.815355778
11.7012285,4.96450901,-12.55334568,3.115455151
11.70600563,5.477769375,-11.89651585,2.474776745
11.71076949,5.812764645,-11.31745243,1.6181463
11.71555996,5.995217323,-10.84367371,0.55154562
11.72033709,6.01675272,-10.49671459,-0.404387027
11.7251009,5.868397713,-10.26042366,-1.228714466
11.72989136,5.473581791,-10.13121128,-1.936989903
11.73466855,4.936991215,-10.01216793,-2.453241348
11.7394324,4.424329281,-9.771689415,-2.915654421
11.74422282,3.842274904,-9.546764374,-3.032902718
11.74899996,3.247658491,-9.278767586,-2.982055187
11.75376381,2.560320139,-8.870791435,-3.035893679
11.75855428,2.050648928,-8.419146538,-3.000001431
11.76333142,1.524826288,-7.847261906,-2.978466034
11.76809527,1.172483087,-7.293921471,-2.780459881
11.77288569,0.9445667267,-6.75972414,-2.463410854
11.77766287,0.7645068169,-6.215955257,-2.02073884
11.78242668,0.5682953596,-5.739783287,-1.275972724
11.78721715,0.3242274821,-5.331208706,-0.4067798555
11.79199433,-0.05144568533,-4.894518852,0.5832505226
11.79675813,-0.5742774606,-4.443471432,1.718046665
11.8015486,-1.194018483,-3.997210264,3.343371391
11.80632574,-1.663609982,-3.714857101,4.435096741
11.81108959,-1.64626193,-3.975076675,4.843072891
11.81588006,-0.9134600163,-4.743771076,4.460819721
11.8206572,-0.06939185411,-5.575276852,3.583251953
11.82543433,0.6275177598,-6.276373863,2.706880569
11.83021147,1.057627559,-6.838686943,1.97527504
11.83498866,1.216152072,-7.295716286,1.250848055
11.83975246,1.036690354,-7.676175117,0.5030909777
11.84454293,0.4953143001,-7.893921852,-0.262014091
11.84932011,-0.08135596663,-8.059026718,-1.271187067
11.85408392,-0.5018945336,-8.32403183,-2.569891453
11.85887438,-0.6634100676,-8.636893272,-4.200001717
11.86365152,-0.5533402562,-9.007183075,-5.93778944
11.86841532,-0.3535395563,-9.381061554,-7.704290867
11.87320579,-0.1274178028,-9.736394882,-8.962915421
11.87798293,0.1483550072,-9.981659889,-9.093324661
11.88274683,0.3577269912,-10.13121128,-8.384450912
11.88753725,0.4450650215,-10.18923664,-7.362715244
11.89231438,0.4953143001,-10.16530895,-6.187241077
11.89709152,0.5790630579,-10.05045319,-4.882554531
