"Time (s)","Acceleration x (m/s^2)","Acceleration y (m/s^2)","Acceleration z (m/s^2)"
2.879799000E-3,1.579262972E0,2.895315409E0,8.496912956E0
7.730736000E-3,1.665404558E0,2.928814888E0,8.475378036E0
1.258167400E-2,1.682154298E0,2.983849764E0,8.583054543E0
1.743229900E-2,1.615155339E0,3.055634499E0,9.162117958E0
2.228281900E-2,1.536192179E0,3.055634499E0,9.466006279E0
2.713339200E-2,1.454836130E0,3.065205812E0,9.786644936E0
3.198396500E-2,1.483550072E0,2.962314367E0,9.970891953E0
3.683448600E-2,1.462014675E0,2.909672260E0,1.013838959E1
4.168505900E-2,1.390229940E0,2.842673302E0,1.020538902E1
4.653558000E-2,1.306481123E0,2.809173822E0,1.022931671E1
5.138610100E-2,1.198804140E0,2.801995277E0,1.021256733E1
5.623667400E-2,1.064806104E0,2.782852650E0,1.017188931E1
6.108719400E-2,9.068797827E-1,2.744567633E0,1.010967541E1
6.593776700E-2,7.345965505E-1,2.691925526E0,1.006660461E1
7.078828800E-2,5.934200287E-1,2.608176708E0,1.004506969E1
7.563886100E-2,4.235295951E-1,2.512463808E0,1.010967541E1
8.048938200E-2,2.991028428E-1,2.392822742E0,1.018146038E1
8.533995500E-2,1.794617027E-1,2.232503414E0,1.027478027E1
9.019047600E-2,4.067798331E-2,2.069791555E0,1.037527943E1
9.504104900E-2,-1.220339537E-1,1.919043779E0,1.044467068E1
9.989156900E-2,-2.632105052E-1,1.782652855E0,1.051645565E1
1.047420900E-1,-3.900300860E-1,1.701296926E0,1.057627583E1
1.095926630E-1,-4.689932466E-1,1.631905079E0,1.063131142E1
1.144431840E-1,-5.599204898E-1,1.591227055E0,1.068395329E1
1.192937570E-1,-6.293123364E-1,1.557727575E0,1.067438221E1
1.241442780E-1,-6.747759581E-1,1.521835208E0,1.066959572E1
1.289948510E-1,-6.987041831E-1,1.509871125E0,1.061695385E1
1.338453720E-1,-7.417750359E-1,1.476371527E0,1.058106136E1
1.386959440E-1,-7.513462901E-1,1.445264935E0,1.053559780E1
1.435464650E-1,-7.417750359E-1,1.423729420E0,1.050209904E1
1.483970380E-1,-7.226324677E-1,1.438086390E0,1.045184898E1
1.532475590E-1,-6.891329288E-1,1.466800332E0,1.041356373E1
1.580981320E-1,-7.226324677E-1,1.495514154E0,1.039202881E1
1.629486530E-1,-7.489534616E-1,1.502692580E0,1.034417248E1
1.677991740E-1,-7.537391186E-1,1.466800332E0,1.018863869E1
1.726497470E-1,-7.417750359E-1,1.442872047E0,9.985248566E0
1.775002670E-1,-7.034898400E-1,1.397408366E0,9.755537987E0
1.823508400E-1,-6.508477330E-1,1.359123230E0,9.547362328E0
1.872013610E-1,-6.005984545E-1,1.308874011E0,9.379864693E0
1.920519340E-1,-5.264210105E-1,1.289731383E0,9.245866776E0
1.969024550E-1,-4.546363056E-1,1.229910851E0,9.229117393E0
2.017529760E-1,-4.211367965E-1,1.182054400E0,9.300901413E0
2.066035490E-1,-4.259224236E-1,1.160519004E0,9.439684868E0
2.114540690E-1,-4.785645306E-1,1.179661512E0,9.616754532E0
2.163046420E-1,-5.264210105E-1,1.160519004E0,9.803394318E0
2.211551630E-1,-6.460621357E-1,1.177268744E0,9.982855797E0
2.260057360E-1,-7.393822074E-1,1.194018483E0,1.012164021E1
2.308562570E-1,-8.638089895E-1,1.184447169E0,1.012642574E1
2.357067780E-1,-1.002592683E0,1.170090318E0,1.004267693E1
2.405573510E-1,-1.009771109E0,1.115055323E0,9.779465675E0
2.454068300E-1,-8.709874153E-1,9.906286001E-1,9.305686951E0
2.501622990E-1,-8.063812256E-1,9.619147182E-1,8.994620323E0
2.549177150E-1,-7.704889178E-1,9.810572863E-1,8.910871506E0
2.596731840E-1,-6.891329288E-1,1.031306505E0,8.920442581E0
2.644286010E-1,-6.005984545E-1,1.079162955E0,8.941978455E0
2.691840170E-1,-5.359922647E-1,1.110269666E0,8.956335068E0
2.739394860E-1,-4.666004181E-1,1.131805062E0,8.994620323E0
2.786949030E-1,-4.666004181E-1,1.098305583E0,8.985049248E0
2.834503720E-1,-5.144568682E-1,1.105484009E0,8.913264275E0
2.882057880E-1,-5.192425251E-1,1.026520967E0,8.791230202E0
2.929612050E-1,-5.670989752E-1,9.499505758E-1,8.606983185E0
2.977166740E-1,-5.838487148E-1,8.973084688E-1,8.439485550E0
3.024720900E-1,-7.010970116E-1,8.566305041E-1,8.370093346E0
3.072275590E-1,-7.680960894E-1,8.063812256E-1,8.408378601E0
3.119829760E-1,-8.638089895E-1,7.776673436E-1,8.559126854E0
3.167384440E-1,-9.690931439E-1,7.298108935E-1,8.769695282E0
3.214938610E-1,-1.045663476E0,6.388836503E-1,9.030512810E0
3.262492780E-1,-1.131805062E0,5.503492355E-1,9.265008926E0
3.310047470E-1,-1.189232826E0,4.498506486E-1,9.547362328E0
3.357601630E-1,-1.215553880E0,3.421736360E-1,9.839286804E0
3.405156320E-1,-1.296909928E0,2.009970993E-1,1.007617569E1
3.452710490E-1,-1.320838094E0,8.374879509E-2,1.032502937E1
3.500264650E-1,-1.361516118E0,-8.853443712E-2,1.062413216E1
3.547819340E-1,-1.306481123E0,-2.249253243E-1,1.072223854E1
3.595373510E-1,-1.215553880E0,-3.254238665E-1,1.070788097E1
3.642928190E-1,-1.170090318E0,-2.847459018E-1,1.084666538E1
3.690482360E-1,-1.275374413E0,-3.708875179E-1,1.072941685E1
3.738036530E-1,-1.263410330E0,-4.618147612E-1,1.071266651E1
3.785591220E-1,-1.160519004E0,-5.120640397E-1,1.077248764E1
3.833145380E-1,-1.136590719E0,-5.479564071E-1,1.081795120E1
3.880700070E-1,-1.241874933E0,-5.288137794E-1,1.096869946E1
3.928254240E-1,-1.799402595E0,-6.652047038E-1,1.190668583E1
3.975808400E-1,-2.230110645E0,-7.728816867E-1,1.272742367E1
4.023363090E-1,-1.895115495E0,-6.197410822E-1,1.172961617E1
4.070917260E-1,-1.452443361E0,-3.278166950E-1,1.043749237E1
4.118471940E-1,-1.237089276E0,-7.896314561E-2,9.894321442E0
4.166026110E-1,-1.167697430E0,7.896314561E-2,9.698110580E0
4.213580280E-1,-1.170090318E0,1.483550072E-1,9.705288887E0
4.261134970E-1,-1.304088354E0,1.603191197E-1,9.829715729E0
4.308689130E-1,-1.600798368E0,1.555334777E-1,9.942177773E0
4.356243300E-1,-1.931007862E0,7.178468257E-2,9.985248566E0
4.403797990E-1,-2.206182480E0,-4.785645381E-2,9.966106415E0
4.451352150E-1,-2.371287346E0,-1.579262912E-1,9.846465111E0
4.498906840E-1,-2.411965132E0,-2.775674164E-1,9.688538551E0
4.546461010E-1,-2.364108801E0,-3.517449200E-1,9.487542152E0
4.594015170E-1,-2.287538528E0,-3.732803464E-1,9.358329773E0
4.641569860E-1,-2.266003132E0,-3.852444589E-1,9.267401695E0
4.689124030E-1,-2.285145521E0,-3.708875179E-1,9.186046600E0
4.736678190E-1,-2.287538528E0,-3.445664644E-1,9.073583603E0
4.784232880E-1,-2.292324066E0,-2.823530734E-1,9.004191399E0
4.831787050E-1,-2.285145521E0,-2.225325108E-1,8.965906143E0
4.879341740E-1,-2.210968018E0,-1.674975902E-1,9.020941734E0
4.926895900E-1,-2.127219439E0,-1.124626622E-1,9.147761345E0
4.974450070E-1,-2.055434704E0,-7.178468257E-2,9.142974854E0
5.022004760E-1,-2.041077614E0,4.067798331E-2,9.157332420E0
5.069558920E-1,-2.033899307E0,1.100698411E-1,9.324830055E0
5.117113090E-1,-2.062613010E0,1.794617027E-1,9.600004196E0
5.164667780E-1,-2.129612207E0,2.536391914E-1,9.891928673E0
5.212221940E-1,-2.203789711E0,3.182454109E-1,1.023649502E1
5.259776110E-1,-2.423929453E0,3.804588020E-1,1.045663452E1
5.307330800E-1,-2.816352367E0,3.397808075E-1,1.031785107E1
5.354884970E-1,-3.065205812E0,2.009970993E-1,1.019342422E1
5.402439130E-1,-3.093919754E0,1.292124242E-1,1.005464077E1
5.449993820E-1,-3.024527788E0,6.939185411E-2,1.004506969E1
5.497547990E-1,-2.849851847E0,7.657032460E-2,1.008335495E1
5.545102670E-1,-2.572284460E0,1.818545163E-1,1.016949654E1
5.592656840E-1,-2.330609322E0,3.230310678E-1,1.024606609E1
5.640211010E-1,-2.069791555E0,4.953143001E-1,1.014556789E1
5.687765690E-1,-1.804188251E0,6.580262184E-1,9.963713646E0
5.735319860E-1,-1.615155339E0,8.422735929E-1,9.784252167E0
5.782874030E-1,-1.462014675E0,1.007378340E0,9.664610863E0
5.830428190E-1,-1.383051515E0,1.179661512E0,9.576076508E0
5.877982880E-1,-1.533799291E0,1.316052437E0,9.310472488E0
5.925537050E-1,-2.182254314E0,1.371087432E0,8.992227554E0
5.973091220E-1,-2.266003132E0,1.543370605E0,8.922835350E0
6.020645900E-1,-2.038684845E0,1.753939033E0,8.683553696E0
6.068200070E-1,-1.928615093E0,1.835294962E0,8.551948547E0
6.115754760E-1,-1.667797327E0,1.847259045E0,8.453842163E0
6.163308920E-1,-1.442872047E0,1.761117458E0,8.188239098E0
6.210863090E-1,-1.349551916E0,1.837687731E0,8.099704742E0
6.258417780E-1,-1.294517040E0,1.887937069E0,8.097311974E0
6.305971940E-1,-1.217946768E0,1.844866276E0,8.164310455E0
6.353526110E-1,-1.251446247E0,1.928615093E0,8.334200859E0
6.401080800E-1,-2.438286304E0,2.823530674E0,8.255238533E0
6.448634970E-1,-2.895315409E0,2.849851847E0,8.937192917E0
6.496189130E-1,-3.148954630E0,2.481357098E0,9.193224907E0
6.543743820E-1,-3.476771355E0,2.160718918E0,9.135796547E0
6.591297990E-1,-3.675375462E0,1.854437590E0,9.241081238E0
6.638852150E-1,-3.608376503E0,1.521835208E0,9.544969559E0
6.686406320E-1,-3.397808075E0,1.155733347E0,9.961320877E0
6.733961010E-1,-3.139383316E0,8.662018180E-1,1.011685371E1
6.781515170E-1,-2.943171740E0,6.771687865E-1,1.028195858E1
6.829069340E-1,-2.902493954E0,5.886343718E-1,1.018385315E1
6.876624030E-1,-2.833101988E0,6.747759581E-1,9.951749802E0
6.924178190E-1,-2.581855536E0,8.087740541E-1,9.676574707E0
6.971732360E-1,-2.514856577E0,8.279166222E-1,9.480362892E0
7.019287050E-1,-2.297109842E0,1.009771109E0,9.209974289E0
7.066841220E-1,-2.048256159E0,1.244267821E0,9.104690552E0
7.114395380E-1,-2.191825628E0,1.378265858E0,9.001798630E0
7.161950070E-1,-2.177468538E0,1.605584025E0,8.886942863E0
7.209504240E-1,-2.062613010E0,1.907079697E0,8.992227554E0
7.257058400E-1,-2.490928411E0,2.029113531E0,8.848658562E0
7.304612570E-1,-2.687139750E0,2.151147604E0,8.606983185E0
7.352167260E-1,-2.861815929E0,2.222932339E0,8.891729355E0
7.399721420E-1,-3.309273720E0,2.072184324E0,8.700303078E0
7.447275590E-1,-3.096312523E0,2.160718918E0,8.673981667E0
7.494830280E-1,-2.969492912E0,2.055434704E0,8.712266922E0
7.542384440E-1,-3.093919754E0,1.825723648E0,8.492127419E0
7.589938610E-1,-2.519642353E0,1.830509305E0,8.602197647E0
7.637493300E-1,-2.395215511E0,1.787438512E0,8.520841599E0
7.685047470E-1,-2.230110645E0,1.942971945E0,8.671588898E0
7.732601630E-1,-1.713261008E0,2.136790514E0,8.645268440E0
7.780155800E-1,-1.852044702E0,2.215753794E0,8.616554260E0
7.827710490E-1,-1.368694544E0,2.505285263E0,8.724231720E0
7.875264650E-1,-1.502692580E0,2.498106956E0,8.944371223E0
7.922818820E-1,-1.122233868E0,2.667997360E0,8.305487633E0
7.970373510E-1,-1.519442320E0,2.555534601E0,8.190631866E0
8.017927670E-1,-1.540977836E0,2.646461725E0,8.300702095E0
8.065481840E-1,-1.808973908E0,2.545963287E0,7.819744587E0
8.113036010E-1,-1.945364833E0,2.675175667E0,8.276773453E0
8.160590690E-1,-2.471785784E0,2.495713949E0,7.267002583E0
8.208144860E-1,-2.854637384E0,2.467000246E0,7.700103283E0
8.255699030E-1,-2.967100143E0,2.533999205E0,8.451449394E0
8.303253720E-1,-3.038884640E0,2.667997360E0,8.276773453E0
8.350807880E-1,-2.770888567E0,2.565105915E0,7.932207108E0
8.398362050E-1,-2.122433662E0,2.644068956E0,8.145168304E0
8.445916220E-1,-1.691725612E0,2.761317253E0,8.530412674E0
8.493470900E-1,-1.502692580E0,2.739781857E0,8.425128937E0
8.541025070E-1,-1.777867198E0,2.533999205E0,7.599604607E0
8.588579240E-1,-1.445264935E0,2.555534601E0,7.649854183E0
8.636133400E-1,-1.299302697E0,2.770888567E0,7.829315662E0
8.683688090E-1,-1.229910851E0,2.897708178E0,7.831708431E0
8.731242260E-1,-9.140582681E-1,3.354737282E0,8.819944382E0
8.778796420E-1,-1.591227055E0,3.223132133E0,7.398607731E0
8.826351110E-1,-1.974078655E0,3.203989506E0,7.223931789E0
8.873905280E-1,-1.990828395E0,3.534198999E0,8.145168304E0
8.921459440E-1,-2.500499725E0,3.558127165E0,8.102097511E0
8.969013610E-1,-2.352144718E0,3.732803345E0,8.475378036E0
9.016568300E-1,-2.478964329E0,3.766302824E0,8.559126854E0
9.064122470E-1,-2.715853691E0,3.756731510E0,8.549555779E0
9.111676630E-1,-2.926422119E0,3.665804386E0,8.444271088E0
9.159230800E-1,-3.081955671E0,3.596412420E0,8.528019905E0
9.206785490E-1,-3.129812002E0,3.625126362E0,8.571090698E0
9.254339650E-1,-3.024527788E0,3.692125320E0,8.602197647E0
9.301893820E-1,-2.880958557E0,3.751945972E0,8.626125336E0
9.349447990E-1,-2.773281336E0,3.828516245E0,8.547162056E0
9.397002670E-1,-2.617748022E0,3.866801500E0,8.513663292E0
9.444556840E-1,-2.445464849E0,3.900300980E0,8.489734650E0
9.492111010E-1,-2.373680115E0,3.938585997E0,8.465806961E0
9.539665170E-1,-2.344966173E0,3.938585997E0,8.417949677E0
9.587219860E-1,-2.404786825E0,3.962514400E0,8.245666504E0
9.634774030E-1,-2.830709219E0,3.850051641E0,7.872386456E0
9.682328190E-1,-2.488535643E0,4.194618225E0,8.291130066E0
9.729882360E-1,-2.656033039E0,4.366901398E0,7.838887215E0
9.777436530E-1,-2.916850805E0,4.582255363E0,7.647460938E0
9.824991220E-1,-3.254238844E0,4.716253281E0,7.470392227E0
9.872545380E-1,-3.089133978E0,4.780859470E0,7.429714203E0
9.920099550E-1,-3.050848961E0,4.900500774E0,7.456035137E0
9.967653720E-1,-3.203989506E0,5.015356064E0,7.336394310E0
1.001520840E0,-3.180061340E0,5.051248550E0,7.465606689E0
1.006276257E0,-3.192025423E0,5.000999451E0,7.520641804E0
1.011031674E0,-3.093919754E0,4.955535889E0,7.700103283E0
1.015787090E0,-3.024527788E0,4.819144726E0,7.925028801E0
1.020542559E0,-2.904886723E0,4.656432629E0,7.996813297E0
1.025297976E0,-2.955136061E0,4.575077057E0,8.049455643E0
1.030053392E0,-2.957528830E0,4.472185612E0,8.252845764E0
1.034808809E0,-3.069991350E0,4.445864677E0,8.417949677E0
1.039564226E0,-3.187239647E0,4.407579422E0,8.511270523E0
1.044319694E0,-3.259024382E0,4.352544308E0,8.544769287E0
1.049075111E0,-3.170490026E0,4.350151539E0,8.472985268E0
1.053830528E0,-3.153740168E0,4.340580463E0,8.429914474E0
1.058585944E0,-3.000599623E0,4.309473515E0,8.248059273E0
1.063341361E0,-3.074777126E0,4.369294167E0,8.226524353E0
1.068096830E0,-3.113062143E0,4.417150497E0,8.238488197E0
1.072852247E0,-3.144168854E0,4.510470867E0,8.200202942E0
1.077607663E0,-3.067598581E0,4.493721008E0,8.056633949E0
1.082363080E0,-3.184846878E0,4.220939159E0,7.578069210E0
1.087118549E0,-2.725425005E0,4.307080746E0,7.824530125E0
1.091873965E0,-2.804388046E0,4.326223373E0,7.575676441E0
1.096629382E0,-2.952743053E0,4.424329281E0,7.360322475E0
1.101384799E0,-3.053241730E0,4.527220249E0,7.255038261E0
1.106140215E0,-2.969492912E0,4.529613495E0,7.147361279E0
1.110895632E0,-2.983849764E0,4.472185612E0,7.159325123E0
1.115651101E0,-2.871387243E0,4.393222332E0,7.171289444E0
1.120406517E0,-3.014956474E0,4.335794449E0,7.312466145E0
1.125161934E0,-3.203989506E0,4.374079704E0,7.678567886E0
1.129917351E0,-3.194418192E0,4.419543266E0,8.080561638E0
1.134672819E0,-3.074777126E0,4.302295208E0,8.135597229E0
1.139428236E0,-3.046063185E0,4.134797573E0,8.336593628E0
1.144183653E0,-3.038884640E0,3.806980848E0,8.228917122E0
1.148939069E0,-3.180061340E0,3.534198999E0,8.341380119E0
1.153694486E0,-3.416950703E0,3.364308596E0,8.027919769E0
1.158449903E0,-3.617947817E0,3.383451223E0,7.927421570E0
1.163205372E0,-3.814159393E0,3.510270834E0,7.499105930E0
1.167960788E0,-3.984049797E0,3.763910055E0,7.056434155E0
1.172716205E0,-3.804588079E0,3.993621111E0,6.649653912E0
1.177471622E0,-3.426522017E0,4.134797573E0,6.235695839E0
1.182227038E0,-3.132204771E0,4.232903481E0,5.881557941E0
1.186982455E0,-3.055634499E0,4.350151539E0,5.759523869E0
1.191737924E0,-3.524627686E0,4.479363918E0,5.639883041E0
1.196493340E0,-3.924229145E0,4.704289436E0,5.647061348E0
1.201248757E0,-4.043870449E0,4.890929699E0,5.668596745E0
1.206004174E0,-4.098905087E0,4.924428940E0,5.580062389E0
1.210759590E0,-4.185046673E0,4.804787636E0,5.477170944E0
1.215515007E0,-4.285545349E0,4.701896667E0,5.429314613E0
1.220270476E0,-4.371686935E0,4.603790760E0,5.477170944E0
1.225025892E0,-4.393222332E0,4.409972191E0,5.659025669E0
1.229781309E0,-4.390829563E0,4.302295208E0,5.953342915E0
1.234536726E0,-4.323830605E0,4.445864677E0,6.206982136E0
1.239292142E0,-4.216153622E0,4.476971149E0,6.489335060E0
1.244047611E0,-4.072584152E0,4.283152580E0,6.783652306E0
1.248803028E0,-3.984049797E0,3.933800459E0,6.991827965E0
1.253558444E0,-3.847658873E0,3.617947817E0,7.171289444E0
1.258313861E0,-3.720839262E0,3.385843992E0,7.401000500E0
1.263069278E0,-3.555734396E0,3.215953588E0,7.556533813E0
1.267824694E0,-3.357130051E0,3.117847919E0,7.661818027E0
1.272580111E0,-3.278167009E0,3.048455954E0,7.640282631E0
1.277335528E0,-3.316452265E0,3.065205812E0,7.475177765E0
1.282090997E0,-3.438486099E0,3.156133175E0,7.149754047E0
1.286846413E0,-3.572484255E0,3.304488182E0,6.659225464E0
1.291601830E0,-3.725624800E0,3.589233875E0,6.128018856E0
1.296357247E0,-4.103690624E0,3.996013880E0,5.553741455E0
1.301112663E0,-4.529613495E0,4.342973232E0,5.044070244E0
1.305868080E0,-5.063212872E0,4.572684288E0,4.608576298E0
1.310623497E0,-5.560919762E0,4.888536453E0,4.285545349E0
1.315378913E0,-5.912664890E0,5.173282623E0,4.149154663E0
1.320134382E0,-6.250052929E0,5.364708424E0,4.173082829E0
1.324889799E0,-6.599404812E0,5.355136871E0,4.424329281E0
1.329645215E0,-6.943971157E0,5.245067120E0,4.867001057E0
1.334400632E0,-7.281359196E0,4.996213913E0,5.393422127E0
1.339156049E0,-7.561319351E0,4.725824833E0,5.950950146E0
1.343911465E0,-7.709674358E0,4.441078663E0,6.558726788E0
1.348666934E0,-7.779066563E0,4.051048756E0,7.168896675E0
1.353422351E0,-7.800601959E0,3.653840065E0,7.685746193E0
1.358177767E0,-7.673782349E0,3.306880951E0,8.099704742E0
1.362933184E0,-7.453642368E0,3.029313564E0,8.480163574E0
1.367688601E0,-7.176074982E0,2.794816732E0,8.750552177E0
1.372444017E0,-6.948757172E0,2.651247501E0,8.874979019E0
1.377199434E0,-6.781259537E0,2.596212626E0,8.563912392E0
1.381954851E0,-6.771687984E0,2.675175667E0,8.154739380E0
1.386710267E0,-6.652047157E0,2.921636343E0,7.712067604E0
1.391465736E0,-6.530013084E0,3.148954630E0,7.269395351E0
1.396221153E0,-6.451049805E0,3.328416348E0,6.800402164E0
1.400976569E0,-6.374479294E0,3.460021496E0,6.338587284E0
1.405731986E0,-6.352943897E0,3.570091486E0,5.924628735E0
1.410487403E0,-6.381658077E0,3.594019651E0,5.639883041E0
1.415242819E0,-6.336194515E0,3.555734396E0,5.386243820E0
1.419998236E0,-6.367300987E0,3.426522017E0,5.285745144E0
1.424753653E0,-6.441478729E0,3.304488182E0,5.324030399E0
1.429509069E0,-6.580262184E0,3.168097258E0,5.469992638E0
1.434264538E0,-6.752545357E0,2.988635540E0,5.556134224E0
1.439019955E0,-6.951149940E0,2.864208698E0,5.544169903E0
1.443775372E0,-7.106683254E0,2.866601467E0,5.522634506E0
1.448530788E0,-7.166503906E0,2.947957516E0,5.446064472E0
1.453286205E0,-7.233502865E0,3.014956474E0,5.283352375E0
1.458041622E0,-7.235895634E0,3.069991350E0,5.197210789E0
1.462797038E0,-7.200003147E0,3.046063185E0,5.156532764E0
1.467552455E0,-7.173682213E0,2.955136061E0,5.273781300E0
1.472307872E0,-7.286144733E0,2.859423161E0,5.465207100E0
1.477063288E0,-7.444071293E0,2.701496840E0,5.615954876E0
1.481818705E0,-7.745566845E0,2.517249346E0,6.013163090E0
1.486574122E0,-8.123632431E0,2.311466694E0,6.419943333E0
1.491329590E0,-8.494520187E0,2.120040894E0,6.826723099E0
1.496085007E0,-8.793622971E0,1.945364833E0,7.128218651E0
1.500840424E0,-8.939585686E0,1.792224169E0,7.360322475E0
1.505595840E0,-8.901300430E0,1.663011789E0,7.491927624E0
1.510351257E0,-8.980263710E0,1.505085468E0,7.549355507E0
1.515106674E0,-9.064012527E0,1.261017561E0,7.168896675E0
1.519862090E0,-9.195617676E0,1.172483087E0,7.056434155E0
1.524617507E0,-9.138189316E0,1.239482164E0,6.819544315E0
1.529372924E0,-8.973084450E0,1.409372568E0,6.455835342E0
1.534128340E0,-8.748159409E0,1.636690736E0,5.982056618E0
1.538883757E0,-8.480163574E0,1.868794441E0,5.539384365E0
1.543639174E0,-8.271987915E0,2.000399828E0,5.254638672E0
1.548394590E0,-8.068597794E0,1.976471543E0,4.687539577E0
1.553150007E0,-8.137989998E0,1.813759565E0,4.484149456E0
1.557905476E0,-8.279166222E0,1.548156261E0,4.285545349E0
1.562660892E0,-8.499305725E0,1.646261930E0,4.022335052E0
1.567416309E0,-8.614161491E0,1.818545222E0,3.907479286E0
1.572171726E0,-8.611768723E0,1.849651933E0,4.022335052E0
1.576927142E0,-8.700303078E0,1.708475351E0,4.199403763E0
1.581682559E0,-8.906085968E0,1.493121386E0,4.280759811E0
1.586437976E0,-8.975478172E0,1.258624673E0,4.426722050E0
1.591193392E0,-9.016156197E0,1.069591761E0,4.622933388E0
1.595948809E0,-9.023334503E0,8.805587292E-1,4.711467743E0
1.600704226E0,-9.008976936E0,6.556333899E-1,4.807180882E0
1.605459642E0,-9.011369705E0,5.096712112E-1,4.924428940E0
1.610215059E0,-8.956335068E0,3.876372576E-1,5.065605640E0
1.614970476E0,-9.087940216E0,3.278166950E-1,5.103890896E0
1.619725892E0,-9.219545364E0,3.158525825E-1,4.948357105E0
1.624481309E0,-9.303294182E0,4.019941986E-1,4.689932346E0
1.629236726E0,-9.353543282E0,5.312066078E-1,4.366901398E0
1.633992142E0,-9.351150513E0,6.221339107E-1,4.029513359E0
