"Time (s)","Acceleration x (m/s^2)","Acceleration y (m/s^2)","Acceleration z (m/s^2)"
2.159537100E-2,9.337386489E-2,5.064035892E0,7.767089367E0
2.359537100E-2,2.394201607E-2,4.987421513E0,7.439084053E0
2.562237100E-2,-2.873042040E-2,4.929960728E0,7.192481041E0
2.763587100E-2,-6.943184882E-2,4.886565685E0,7.003339291E0
2.964520400E-2,-1.005564705E-1,4.862623692E0,6.869264126E0
3.165220400E-2,-1.244984865E-1,4.848258495E0,6.783072472E0
3.365780400E-2,-1.436520964E-1,4.841075897E0,6.725611687E0
3.565913700E-2,-1.532289088E-1,4.833893299E0,6.706458092E0
3.766142200E-2,-1.532289088E-1,4.831499100E0,6.725611687E0
3.966492200E-2,-1.460463107E-1,4.831499100E0,6.759130478E0
4.166803300E-2,-1.340752989E-1,4.833893299E0,6.826168537E0
4.367083300E-2,-1.077390760E-1,4.841075897E0,6.924330711E0
4.567328700E-2,-8.140286058E-2,4.848258495E0,7.024887085E0
4.767553700E-2,-4.309562966E-2,4.855441093E0,7.146991253E0
4.967761300E-2,-4.788403399E-3,4.860229492E0,7.264307022E0
5.167954100E-2,4.309562966E-2,4.869806290E0,7.395988464E0
5.368134100E-2,1.029506698E-1,4.881777287E0,7.537246227E0
5.568302800E-2,1.604115069E-1,4.893748283E0,7.668927193E0
5.768461600E-2,2.250549644E-1,4.903624535E0,7.810185432E0
5.968656000E-2,2.896983922E-1,4.913201332E0,7.951443195E0
6.168798100E-2,3.543418646E-1,4.917989731E0,8.092700958E0
6.368933100E-2,4.094084799E-1,4.920383930E0,8.217199326E0
6.569042600E-2,4.572925270E-1,4.922778130E0,8.334515572E0
6.769165300E-2,5.003881454E-1,4.920383930E0,8.435071945E0
6.969282600E-2,5.363011956E-1,4.913201332E0,8.528446198E0
7.169395100E-2,5.698199868E-1,4.906018734E0,8.607454300E0
7.369503100E-2,5.961562395E-1,4.886565685E0,8.674491882E0
7.569610700E-2,6.200982332E-1,4.857835293E0,8.724770546E0
7.769714400E-2,6.416460276E-1,4.831499100E0,8.760683060E0
7.969814400E-2,6.560112834E-1,4.797980309E0,8.779836655E0
8.169910900E-2,6.655880809E-1,4.764461517E0,8.782231331E0
8.370004200E-2,6.727706790E-1,4.730942726E0,8.779836655E0
8.570007500E-2,6.775590777E-1,4.695029736E0,8.758289337E0
8.770010800E-2,6.775590777E-1,4.656722069E0,8.719982147E0
8.970010800E-2,6.775590777E-1,4.623203278E0,8.679280281E0
9.170007400E-2,6.775590777E-1,4.587290287E0,8.621819496E0
9.370004000E-2,6.775590777E-1,4.553771496E0,8.547599792E0
9.570067300E-2,6.823474765E-1,4.525041103E0,8.473379135E0
9.770103900E-2,6.895300746E-1,4.503493309E0,8.382399559E0
9.970100500E-2,7.015010715E-1,4.486733913E0,8.293813705E0
1.017009710E-1,7.134721279E-1,4.472368717E0,8.193257332E0
1.037009370E-1,7.302315235E-1,4.453215122E0,8.075942039E0
1.057009370E-1,7.469909191E-1,4.438849926E0,7.965808392E0
1.077009700E-1,7.685387731E-1,4.424484730E0,7.841310024E0
1.097010030E-1,7.876923680E-1,4.405331135E0,7.707234383E0
1.117010360E-1,8.044517636E-1,4.388571739E0,7.587524414E0
1.137010690E-1,8.140285611E-1,4.369418144E0,7.458237648E0
1.157011020E-1,8.164227605E-1,4.347870350E0,7.328950882E0
1.177011350E-1,8.164227605E-1,4.323928356E0,7.211634636E0
1.197009010E-1,8.140285611E-1,4.292803764E0,7.096713066E0
1.217009340E-1,7.996633649E-1,4.247313976E0,6.981791496E0
1.237009340E-1,7.852981687E-1,4.204218388E0,6.878840923E0
1.257010670E-1,7.637503147E-1,4.153939724E0,6.778284073E0
1.277010670E-1,7.422025204E-1,4.103661537E0,6.687304497E0
1.297010670E-1,7.230489254E-1,4.046200752E0,6.596324921E0
1.317010670E-1,7.015010715E-1,3.983951569E0,6.507739544E0
1.337010670E-1,6.823474765E-1,3.924096584E0,6.426336765E0
1.357010330E-1,6.751648784E-1,3.864241600E0,6.342539787E0
1.377009990E-1,6.799532771E-1,3.806780815E0,6.261136532E0
1.397009650E-1,6.871358752E-1,3.756502390E0,6.191704750E0
1.417009310E-1,6.991068721E-1,3.708618402E0,6.129455566E0
1.437008970E-1,7.110779285E-1,3.663128614E0,6.074388981E0
1.457008630E-1,7.206547260E-1,3.622427225E0,6.031293392E0
1.477008290E-1,7.278373241E-1,3.584120035E0,5.995380402E0
1.497007950E-1,7.326257229E-1,3.541024208E0,5.966650009E0
1.517007950E-1,7.350199223E-1,3.495534420E0,5.945102215E0
1.537008280E-1,7.374141216E-1,3.440467834E0,5.933131218E0
1.557008610E-1,7.398083210E-1,3.385401249E0,5.928342819E0
1.577008940E-1,7.445967197E-1,3.315969467E0,5.935525417E0
1.597009270E-1,7.493851185E-1,3.232172251E0,5.952284813E0
1.617009600E-1,7.517793179E-1,3.153163671E0,5.973832607E0
1.637009930E-1,7.589619160E-1,3.059789658E0,6.007351398E0
1.657010260E-1,7.757213712E-1,2.952050686E0,6.050446987E0
1.677010260E-1,7.924807668E-1,2.846705914E0,6.091148376E0
1.697009920E-1,8.140285611E-1,2.729389906E0,6.136638165E0
1.717009580E-1,8.451532125E-1,2.600103140E0,6.184522152E0
1.737009240E-1,8.762778044E-1,2.480392933E0,6.230011940E0
1.757008900E-1,9.097966552E-1,2.348711967E0,6.282684326E0
1.777008560E-1,9.504981041E-1,2.224213362E0,6.337751389E0
1.797008220E-1,9.864110947E-1,2.082955360E0,6.390423775E0
1.817007880E-1,1.027112484E0,1.929726601E0,6.445490360E0
1.837007880E-1,1.063025594E0,1.786074519E0,6.495768547E0
1.857007880E-1,1.094150186E0,1.632845521E0,6.543652534E0
1.877007880E-1,1.122880578E0,1.479616642E0,6.586748123E0
1.897007880E-1,1.146822572E0,1.340752959E0,6.625055313E0
1.917007880E-1,1.165976286E0,1.204283476E0,6.656179905E0
1.937007880E-1,1.182735682E0,1.084573388E0,6.672939301E0
1.957007880E-1,1.199495077E0,9.840168953E-1,6.682516098E0
1.977007880E-1,1.221042871E0,9.002198577E-1,6.677727699E0
1.997007880E-1,1.244984865E0,8.331822157E-1,6.660968304E0
2.017008210E-1,1.271321058E0,7.805097699E-1,6.639420509E0
2.037008540E-1,1.307234168E0,7.398083210E-1,6.610690117E0
2.057008870E-1,1.345541358E0,7.110779285E-1,6.581959724E0
2.077009200E-1,1.381454349E0,6.919242740E-1,6.546046734E0
2.097009530E-1,1.429338455E0,6.703764796E-1,6.510133743E0
2.117009860E-1,1.474828243E0,6.488286853E-1,6.476614952E0
2.137009860E-1,1.527500629E0,6.177040339E-1,6.445490360E0
2.157009860E-1,1.589749932E0,5.770025849E-1,6.407183170E0
2.177009520E-1,1.654393315E0,5.315127969E-1,6.371270180E0
2.197009180E-1,1.728613615E0,4.716577232E-1,6.323386192E0
2.217008840E-1,1.802833915E0,3.926490843E-1,6.263530731E0
2.237008500E-1,1.872265697E0,3.160346150E-1,6.203675747E0
2.257008160E-1,1.944091797E0,2.202665508E-1,6.127061367E0
2.277007820E-1,2.003946781E0,1.101332754E-1,6.038475990E0
2.297007820E-1,2.049436569E0,4.788403399E-3,5.952284813E0
2.317008150E-1,2.082955360E0,-1.149216816E-1,5.856516838E0
2.337008480E-1,2.109291792E0,-2.274491638E-1,5.765536785E0
2.357008810E-1,2.126051188E0,-3.495534360E-1,5.669768810E0
2.377009140E-1,2.133233786E0,-4.836287498E-1,5.578789234E0
2.397009470E-1,2.135627985E0,-6.105214357E-1,5.499780655E0
2.417009800E-1,2.126051188E0,-7.589619160E-1,5.418377876E0
2.437010130E-1,2.106897593E0,-9.193734527E-1,5.336975098E0
2.457014130E-1,2.085349798E0,-1.070208192E0,5.262754440E0
2.477014130E-1,2.056619167E0,-1.233013868E0,5.181351662E0
2.497014130E-1,2.020706177E0,-1.395819545E0,5.095160484E0
2.517014130E-1,1.989581585E0,-1.537077546E0,5.011363506E0
2.537014130E-1,1.956062794E0,-1.680729628E0,4.920383930E0
2.557014130E-1,1.920149803E0,-1.814804912E0,4.824316502E0
2.577014130E-1,1.891419291E0,-1.929726601E0,4.735731125E0
2.597014130E-1,1.869871497E0,-2.032677174E0,4.642356873E0
2.617013790E-1,1.857900500E0,-2.133233786E0,4.551377296E0
2.637013450E-1,1.848323703E0,-2.224213362E0,4.469974518E0
2.657013110E-1,1.841141105E0,-2.319981337E0,4.390965939E0
2.677012770E-1,1.833958507E0,-2.410961151E0,4.319139957E0
2.697012430E-1,1.821987510E0,-2.513911724E0,4.247313976E0
2.717012090E-1,1.802833915E0,-2.624045134E0,4.175487995E0
2.737011750E-1,1.783680320E0,-2.726995707E0,4.110844135E0
2.757011410E-1,1.750161409E0,-2.837129116E0,4.046200752E0
2.777011410E-1,1.697489023E0,-2.956839085E0,3.981557369E0
2.797011740E-1,1.642422318E0,-3.066972494E0,3.926490784E0
2.817012070E-1,1.570596337E0,-3.186682463E0,3.888183594E0
2.837012400E-1,1.479616642E0,-3.299209833E0,3.866635799E0
2.857012730E-1,1.388636947E0,-3.428496838E0,3.859453201E0
2.877013390E-1,1.276109457E0,-3.576937437E0,3.873818398E0
2.897013720E-1,1.161187768E0,-3.720589399E0,3.895366192E0
2.917013720E-1,1.017535686E0,-3.888183594E0,3.936067581E0
2.937013720E-1,8.475474119E-1,-4.065354347E0,3.988739967E0
2.957013380E-1,6.871358752E-1,-4.223371983E0,4.041412354E0
2.977013040E-1,5.147533417E-1,-4.376600742E0,4.101267338E0
2.997012700E-1,3.327940404E-1,-4.513070107E0,4.163516521E0
3.017012360E-1,1.460463107E-1,-4.630385876E0,4.228160381E0
3.037012020E-1,-2.394201607E-2,-4.726154327E0,4.285621166E0
3.057008020E-1,-2.011129409E-1,-4.805162907E0,4.347870350E0
3.077008020E-1,-3.591302633E-1,-4.867412090E0,4.407725334E0
3.097008020E-1,-5.147533417E-1,-4.917989731E0,4.467580318E0
3.117008350E-1,-6.631938815E-1,-4.956296921E0,4.520252705E0
3.137008680E-1,-7.900865674E-1,-4.985027313E0,4.570530891E0
3.157009010E-1,-9.074024558E-1,-5.004180908E0,4.623203278E0
3.177009340E-1,-1.010353088E0,-5.018546104E0,4.668693542E0
3.197009670E-1,-1.110909581E0,-5.037699699E0,4.716577530E0
3.217010000E-1,-1.204283476E0,-5.064035892E0,4.769249916E0
3.237010330E-1,-1.288080573E0,-5.092766285E0,4.819528103E0
3.257010330E-1,-1.369483352E0,-5.140650272E0,4.876988888E0
3.277010330E-1,-1.453280449E0,-5.212476254E0,4.944325924E0
3.297010330E-1,-1.529894829E0,-5.289090633E0,5.006575108E0
3.317010330E-1,-1.604115129E0,-5.392041683E0,5.071218491E0
3.337010330E-1,-1.675941229E0,-5.511751652E0,5.135861874E0
3.357010330E-1,-1.735796213E0,-5.626673222E0,5.195716858E0
3.377010330E-1,-1.786074519E0,-5.751171589E0,5.265148640E0
3.397009990E-1,-1.829170108E0,-5.868487835E0,5.332186222E0
3.417009650E-1,-1.874659896E0,-5.997774601E0,5.415983677E0
3.437009310E-1,-1.936909199E0,-6.141426563E0,5.518934250E0
3.457008970E-1,-2.003946781E0,-6.280290127E0,5.619490623E0
3.477008300E-1,-2.097320795E0,-6.445490360E0,5.743988991E0
3.497003960E-1,-2.219424963E0,-6.634632111E0,5.880458832E0
3.517003620E-1,-2.346317768E0,-6.814197540E0,6.007351398E0
3.537003280E-1,-2.509123325E0,-7.015310287E0,6.143820763E0
3.557003280E-1,-2.700659513E0,-7.228394032E0,6.282684326E0
3.577003610E-1,-2.882618904E0,-7.424718857E0,6.409577370E0
3.597003940E-1,-3.081337690E0,-7.640196800E0,6.550835133E0
3.617004270E-1,-3.282450438E0,-7.865252018E0,6.699275494E0
3.637004600E-1,-3.459621429E0,-8.071153641E0,6.835745335E0
3.657004930E-1,-3.624821424E0,-8.284236908E0,6.974608898E0
3.677005260E-1,-3.766079187E0,-8.473379135E0,7.099107265E0
3.697005590E-1,-3.890577793E0,-8.655338287E0,7.214028835E0
3.717005590E-1,-3.986345768E0,-8.822932243E0,7.316979885E0
3.737005250E-1,-4.060565948E0,-8.961795807E0,7.405565262E0
3.757004910E-1,-4.125209332E0,-9.071929932E0,7.477391243E0
3.777004570E-1,-4.177882195E0,-9.138967514E0,7.532457829E0
3.797004230E-1,-4.223371983E0,-9.184456825E0,7.580341816E0
3.817003890E-1,-4.266467571E0,-9.201216698E0,7.623437405E0
3.837003550E-1,-4.311957359E0,-9.196428299E0,7.668927193E0
3.857003550E-1,-4.355052948E0,-9.186851501E0,7.716811180E0
3.877003550E-1,-4.402936935E0,-9.170091629E0,7.786243439E0
3.897003880E-1,-4.469974518E0,-9.160514832E0,7.882011414E0
3.917004210E-1,-4.537012100E0,-9.170091629E0,7.980173588E0
3.937004540E-1,-4.623203278E0,-9.201216698E0,8.102277756E0
3.957004870E-1,-4.714183331E0,-9.241917610E0,8.219594002E0
3.977005200E-1,-4.841075897E0,-9.304166794E0,8.348880768E0
3.997005530E-1,-5.004180908E0,-9.380781174E0,8.475772858E0
4.017005860E-1,-5.164592266E0,-9.455001831E0,8.585906982E0
4.037005860E-1,-5.353734493E0,-9.534010887E0,8.679280281E0
4.057005860E-1,-5.566818237E0,-9.613018990E0,8.755894661E0
4.077005860E-1,-5.770325184E0,-9.680056572E0,8.815750122E0
4.097009860E-1,-6.000168800E0,-9.739912033E0,8.866027832E0
4.117009860E-1,-6.249165535E0,-9.785401344E0,8.901941299E0
4.137009860E-1,-6.481403351E0,-9.816526413E0,8.933065414E0
4.157009860E-1,-6.725611687E0,-9.830891609E0,8.964190483E0
4.177009520E-1,-6.977003098E0,-9.833285332E0,9.002497673E0
4.197009180E-1,-7.206846237E0,-9.809343338E0,9.040804863E0
4.217008840E-1,-7.439084053E0,-9.761459351E0,9.095871925E0
4.237008500E-1,-7.644985199E0,-9.713575363E0,9.153332710E0
4.257008160E-1,-7.848492622E0,-9.658509254E0,9.227552414E0
4.277007820E-1,-8.042423248E0,-9.605836868E0,9.320926666E0
4.297007480E-1,-8.212410927E0,-9.560346603E0,9.411906242E0
4.317007140E-1,-8.377611160E0,-9.524434090E0,9.526827812E0
4.337007140E-1,-8.542811394E0,-9.500492096E0,9.658509254E0
4.357007470E-1,-8.693645477E0,-9.483732224E0,9.785401344E0
4.377007800E-1,-8.851662636E0,-9.471760750E0,9.929053307E0
4.397008130E-1,-9.016862869E0,-9.455001831E0,1.008228302E1
4.417008460E-1,-9.167697906E0,-9.435848236E0,1.022114658E1
4.437008790E-1,-9.325715065E0,-9.409511566E0,1.036001015E1
4.457008790E-1,-9.493309021E0,-9.383175850E0,1.048211479E1
4.477009120E-1,-9.646537781E0,-9.354445457E0,1.059703636E1
4.497009120E-1,-9.804554939E0,-9.325715065E0,1.069759274E1
4.517008780E-1,-9.948206902E0,-9.304166794E0,1.077899551E1
4.537008440E-1,-1.008467674E1,-9.301773071E0,1.083406162E1
4.557006770E-1,-1.021156979E1,-9.325715065E0,1.086518669E1
4.577006430E-1,-1.031691456E1,-9.364022255E0,1.087955189E1
4.597006090E-1,-1.040789413E1,-9.428665161E0,1.087476349E1
4.617005750E-1,-1.049169159E1,-9.514857292E0,1.085321522E1
4.637005750E-1,-1.056351757E1,-9.601048470E0,1.082687950E1
4.657005750E-1,-1.063534355E1,-9.696816444E0,1.077899551E1
4.677006080E-1,-1.071195793E1,-9.785401344E0,1.071674633E1
4.697006410E-1,-1.078617764E1,-9.862015724E0,1.065210247E1
4.717006740E-1,-1.086758041E1,-9.924264908E0,1.056830597E1
4.737007070E-1,-1.094898319E1,-9.972148895E0,1.048211479E1
4.757007400E-1,-1.103756905E1,-9.998485565E0,1.036719227E1
4.777007730E-1,-1.113094330E1,-9.998485565E0,1.022832870E1
4.797008060E-1,-1.121473980E1,-9.986514091E0,1.009425354E1
4.817008060E-1,-1.129374886E1,-9.957783699E0,9.938630104E0
4.837012060E-1,-1.137036324E1,-9.924264908E0,9.771036148E0
4.857012060E-1,-1.143740082E1,-9.893140793E0,9.617807388E0
4.877012060E-1,-1.149246788E1,-9.862015724E0,9.462183952E0
4.897012060E-1,-1.153556347E1,-9.835680008E0,9.304166794E0
4.917012060E-1,-1.156429386E1,-9.816526413E0,9.162909508E0
4.937012060E-1,-1.157147598E1,-9.806949615E0,9.026439667E0
4.957011720E-1,-1.155950546E1,-9.802161217E0,8.904335022E0
4.977011380E-1,-1.154035187E1,-9.802161217E0,8.801384926E0
4.997011040E-1,-1.150443840E1,-9.802161217E0,8.715193748E0
5.017010700E-1,-1.146134281E1,-9.804554939E0,8.648156166E0
5.037010360E-1,-1.141824722E1,-9.806949615E0,8.593089104E0
5.057010360E-1,-1.137275696E1,-9.804554939E0,8.549993515E0
5.077010020E-1,-1.132726765E1,-9.802161217E0,8.514080048E0
5.097009680E-1,-1.127459526E1,-9.799766541E0,8.485349655E0
5.117009680E-1,-1.121952820E1,-9.804554939E0,8.461407661E0
5.137010010E-1,-1.116685581E1,-9.814131737E0,8.442254066E0
5.157011670E-1,-1.111657810E1,-9.838073730E0,8.430283546E0
5.177012000E-1,-1.107348251E1,-9.883563995E0,8.423100471E0
5.197012330E-1,-1.103756905E1,-9.933841705E0,8.418312073E0
5.217009330E-1,-1.100644493E1,-9.998485565E0,8.420706749E0
5.237006330E-1,-1.098250294E1,-1.006312943E1,8.425495148E0
5.257006660E-1,-1.096813679E1,-1.014213753E1,8.432677269E0
5.277006660E-1,-1.097053146E1,-1.022593498E1,8.442254066E0
5.297006320E-1,-1.098489666E1,-1.030254936E1,8.451830864E0
5.317005980E-1,-1.102559853E1,-1.037198067E1,8.461407661E0
5.337005640E-1,-1.109981823E1,-1.042704773E1,8.470984459E0
5.357005300E-1,-1.118361568E1,-1.046296024E1,8.478167534E0
5.377004960E-1,-1.131290245E1,-1.047253704E1,8.480561256E0
5.397004620E-1,-1.148049641E1,-1.045817184E1,8.480561256E0
5.417004620E-1,-1.167921543E1,-1.041028786E1,8.480561256E0
5.437000620E-1,-1.187314510E1,-1.034803867E1,8.482955933E0
5.457000620E-1,-1.210059452E1,-1.024987698E1,8.494926453E0
5.477000620E-1,-1.231607246E1,-1.014692593E1,8.506897926E0
5.497000620E-1,-1.254112816E1,-1.001763916E1,8.528446198E0
5.517000620E-1,-1.275660610E1,-9.873987198E0,8.549993515E0
5.536991620E-1,-1.294574833E1,-9.742305756E0,8.564358711E0
5.556982620E-1,-1.312291908E1,-9.608230591E0,8.573935509E0
5.576973620E-1,-1.326896477E1,-9.486125946E0,8.578723907E0
5.596964620E-1,-1.340303993E1,-9.356839180E0,8.576330185E0
5.616955950E-1,-1.354429817E1,-9.220370293E0,8.569147110E0
5.636947280E-1,-1.367837334E1,-9.095871925E0,8.561964989E0
5.656946280E-1,-1.382681370E1,-8.966584206E0,8.549993515E0
5.676941610E-1,-1.398483181E1,-8.844480515E0,8.538022995E0
5.696936940E-1,-1.413327217E1,-8.739135742E0,8.526051521E0
5.716935940E-1,-1.428171253E1,-8.643367767E0,8.511686325E0
5.736930940E-1,-1.440381718E1,-8.561964989E0,8.494926453E0
5.756925600E-1,-1.449479675E1,-8.502109528E0,8.473379135E0
5.776920260E-1,-1.454746914E1,-8.459013939E0,8.432677269E0
5.796914920E-1,-1.457619953E1,-8.427888870E0,8.387187958E0
5.816916580E-1,-1.455943966E1,-8.406341553E0,8.322544098E0
5.836914580E-1,-1.450437355E1,-8.391976357E0,8.241141319E0
5.856909240E-1,-1.443972969E1,-8.380004883E0,8.159738541E0
5.876903900E-1,-1.434875011E1,-8.365639687E0,8.061576843E0
5.896902560E-1,-1.423622227E1,-8.344092369E0,7.949048996E0
5.916897890E-1,-1.412848377E1,-8.320150375E0,7.838915825E0
5.936893220E-1,-1.400398540E1,-8.281843185E0,7.714416981E0
5.956888550E-1,-1.386751556E1,-8.233959198E0,7.570765018E0
5.976883880E-1,-1.374062252E1,-8.186075211E0,7.436689854E0
5.996882880E-1,-1.359697056E1,-8.126219749E0,7.288249016E0
6.016878210E-1,-1.343416500E1,-8.052000046E0,7.132626057E0
6.036873540E-1,-1.328332996E1,-7.980173588E0,6.991368294E0
6.056872540E-1,-1.311573601E1,-7.896376610E0,6.852504730E0
6.076867540E-1,-1.295532513E1,-7.814973831E0,6.730400085E0
6.096862540E-1,-1.277336502E1,-7.714416981E0,6.605901718E0
6.116861200E-1,-1.256267548E1,-7.599495411E0,6.479009151E0
6.136865200E-1,-1.235916805E1,-7.489362240E0,6.366481781E0
6.156867530E-1,-1.212453651E1,-7.367258072E0,6.258742332E0
6.176872530E-1,-1.186117458E1,-7.230788231E0,6.160580158E0
6.196881530E-1,-1.162175465E1,-7.106289864E0,6.079177380E0
6.216890190E-1,-1.137754536E1,-6.986579895E0,6.002563000E0
6.236898850E-1,-1.112615490E1,-6.876446724E0,5.921160221E0
6.256911510E-1,-1.089391708E1,-6.785466671E0,5.844545841E0
6.276916170E-1,-1.065210247E1,-6.701669693E0,5.770325184E0
6.296916830E-1,-1.040549946E1,-6.627449512E0,5.703287601E0
6.316917830E-1,-1.018044472E1,-6.558017731E0,5.643432617E0
6.336922490E-1,-9.950601578E0,-6.500556946E0,5.588366032E0
6.356927490E-1,-9.749488831E0,-6.452672958E0,5.542876244E0
6.376932490E-1,-9.565135002E0,-6.414365768E0,5.511751652E0
6.396937820E-1,-9.404723167E0,-6.383241177E0,5.506963253E0
6.416939480E-1,-9.268254280E0,-6.354510784E0,5.516540051E0
6.436944810E-1,-9.129390717E0,-6.325780392E0,5.557241440E0
6.456950140E-1,-8.985737801E0,-6.297049522E0,5.631461620E0
6.476955470E-1,-8.849268913E0,-6.275501728E0,5.708076000E0
6.496957130E-1,-8.696040154E0,-6.265924931E0,5.796661377E0
6.516962130E-1,-8.530839920E0,-6.263530731E0,5.880458832E0
6.536966790E-1,-8.382399559E0,-6.263530731E0,5.945102215E0
6.556971450E-1,-8.236352921E0,-6.261136532E0,5.978621006E0
6.576976110E-1,-8.092700958E0,-6.253953934E0,5.992986202E0
6.596977110E-1,-7.965808392E0,-6.241982937E0,5.971438408E0
6.616981770E-1,-7.850886822E0,-6.227617741E0,5.913977623E0
6.636986430E-1,-7.757512569E0,-6.210858345E0,5.846940041E0
6.656987430E-1,-7.671321392E0,-6.191704750E0,5.746383190E0
6.676992430E-1,-7.599495411E0,-6.177339554E0,5.612308025E0
6.696997760E-1,-7.539640427E0,-6.170156956E0,5.475838661E0
6.716994420E-1,-7.479785442E0,-6.179733753E0,5.310638428E0
6.736999750E-1,-7.403171062E0,-6.208464146E0,5.128679276E0
6.757006750E-1,-7.326556683E0,-6.241982937E0,4.961085320E0
6.777011080E-1,-7.233182430E0,-6.294655323E0,4.778826714E0
6.797011410E-1,-7.125443459E0,-6.366481781E0,4.589684486E0
6.817011740E-1,-7.017704487E0,-6.455067158E0,4.398148537E0
6.837012070E-1,-6.919542313E0,-6.541258335E0,4.225766182E0
6.857000400E-1,-6.830956936E0,-6.620266914E0,4.065354347E0
6.877000400E-1,-6.747159481E0,-6.701669693E0,3.892971992E0
6.897004400E-1,-6.668150902E0,-6.780678272E0,3.706224203E0
6.917004400E-1,-6.596324921E0,-6.847716331E0,3.531447411E0
6.937004400E-1,-6.526893139E0,-6.907571316E0,3.337517262E0
6.957004400E-1,-6.457461357E0,-6.965032101E0,3.126827478E0
6.977004400E-1,-6.392817974E0,-7.012916088E0,2.932897091E0
