Time (s),Acceleration x (m/s^2),Acceleration y (m/s^2),Acceleration z (m/s^2)
10.00179288,-9.071190834,-6.16869688,0.9044869542
10.00654777,-8.157132149,-6.116054535,1.55054903
10.01130267,-7.391428947,-6.321837425,1.873580098
10.01605756,-6.640082836,-6.611369133,2.029113531
10.02081246,-6.003592014,-7.034898758,2.203789711
10.02556741,-5.589633465,-7.645068169,2.371287346
10.0303223,-5.247459888,-8.487341881,2.440679073
10.0350772,-4.895715237,-9.573683739,2.380858421
10.03983209,-4.622933388,-10.91366386,2.445464849
10.04458699,-4.402793884,-12.43310642,2.682354212
10.04934189,-4.189832687,-13.9860487,3.00538516
10.05409683,-4.180261135,-15.28056526,3.134597778
10.05885173,-4.235296249,-16.71386528,3.026920557
10.06360663,-4.189832687,-18.31705666,2.794816732
10.06836152,-4.024727821,-20.16431618,2.569891453
10.07311642,-3.694518089,-22.09771729,2.227717876
10.07787131,-3.098705292,-24.1076889,1.897508383
10.08262626,-2.335394859,-25.93580437,1.722832322
10.08738116,-1.663011789,-27.20878601,1.777867198
10.09213605,-1.35912323,-27.86441994,2.170290232
10.09689095,-1.189232826,-28.04627419,2.801995277
10.10164584,-0.9355936646,-27.69213676,3.620340586
10.10640074,-0.5527420044,-26.59622383,4.173082829
10.11115569,-0.1627119333,-25.05285263,4.113262177
10.11591058,0.2464607358,-23.26062965,3.955335855
10.12066548,0.4953143001,-21.26022911,3.572484255
10.12542038,1.019342422,-18.98465538,2.330609322
10.13017527,2.0769701,-16.55115509,-0.2679961324
10.13493017,3.354737282,-14.36172104,-2.483749866
10.13968512,3.847658873,-12.33978653,-4.237689018
10.14444001,3.993621111,-10.63370419,-5.525027275
10.14919491,3.562912941,-8.810373306,-6.530013084
10.1539498,3.139383316,-7.034898758,-6.783652306
10.1587047,2.340180635,-5.943771362,-5.570491314
10.16345959,1.392622828,-5.687739372,-4.003192425
10.16821454,0.7298108935,-5.864808083,-2.868994236
10.17296944,0.2775674164,-6.209374905,-1.835294962
10.17772433,-0.07896314561,-6.453442574,-1.227517962
10.18247923,-0.2919243574,-6.55394125,-0.8590233326
10.18723413,-0.5958128572,-6.620940208,-1.067198873
10.19198902,-0.6915257573,-6.501298904,-1.117448211
10.19674392,-0.9044869542,-6.360122681,-1.158126116
10.20149887,-1.21555388,-6.252445698,-1.076770186
10.20625376,-1.308874011,-6.187839508,-0.7274180651
10.21100866,-1.411765337,-6.144768715,-0.2129612118
10.21576355,-1.45483613,-6.068198204,0.1172483116
10.22051845,-1.416550994,-5.934200287,0.404387027
10.22527334,-1.31126678,-5.709274769,0.784845829
10.23002824,-1.239482164,-5.448457241,0.9954141974
10.23478314,-1.081555843,-5.20917511,1.050449133
10.23953808,-0.9499505758,-4.900500774,1.179661512
10.24429298,-0.7944171429,-4.58943367,1.299302697
10.24904788,-0.6221339107,-4.33340168,1.426122308
10.25380277,-0.4283152521,-4.082155228,1.505085468
10.25855767,-0.2703889608,-3.90030098,1.485942841
10.26331256,-0.06221338734,-3.706482172,1.404586911
10.26806751,0.1794617027,-3.553341627,1.258624673
10.27282241,0.5072783828,-3.460021496,1.064806104
10.2775773,0.8470591903,-3.364308596,0.9164510965
10.2823322,1.313659668,-3.268595695,0.7537391186
10.28708709,1.856830359,-3.211168051,0.3828516304
10.29184199,2.167897224,-3.175275564,0.1363908947
10.29659689,2.517249346,-3.153740168,-0.01914258115
10.30135178,2.976671457,-3.060420275,-0.2775674164
10.30610668,3.416950703,-2.947957516,-0.6580262184
10.31086163,3.847658873,-2.82831645,-1.040877819
10.31561652,4.185046673,-2.790031195,-1.399801254
10.32037142,4.357329845,-2.842673302,-1.847259045
10.32512631,4.417150497,-2.935993433,-2.246860504
10.32988121,4.33340168,-3.093919754,-2.713460922
10.33463611,4.070191383,-3.196810961,-3.280559778
10.339391,3.510270834,-3.278167009,-3.88594389
10.34414595,2.739781857,-3.381058455,-4.469792843
10.34890084,1.756331801,-3.567698479,-4.80957365
10.35365574,0.6125625968,-3.830909014,-4.941178799
10.35841064,-0.5575276613,-4.225724697,-4.922036171
10.36316553,-1.95015049,-4.66839695,-5.108676434
10.36792043,-3.105883837,-5.190032482,-4.914857864
10.37267532,-4.61814785,-5.603990555,-3.223132133
10.37743022,-6.436692715,-5.886343479,-0.06939185411
10.38218517,-8.425128937,-6.491727829,4.252045631
10.38694006,-10.71027374,-7.010970116,8.685946465
10.39169496,-11.92582798,-8.327022552,12.93081379
10.39644986,-13.23709488,-10.13838959,14.802001
10.40120475,-14.68714523,-12.48096275,14.51007652
10.40595965,-15.97448444,-15.16092396,12.82792187
10.41071454,-17.05125427,-17.83609962,10.40159988
10.41546944,-17.7068882,-19.93221283,7.477570534
10.42022439,-18.66640854,-21.17648125,4.450650215
10.42497928,-19.63071632,-21.16690826,2.579462767
10.42973418,-20.67638016,-19.38664818,1.392622828
10.43448907,-21.01616096,-17.35274887,0.70348984
10.43924397,-20.85823441,-15.5174551,0.03349951655
10.44399887,-20.2672081,-13.9740839,-0.6604190469
10.44875376,-19.16890144,-12.43310642,-1.201196909
10.45350866,-17.78585052,-10.96869946,-1.416550994
10.45826355,-16.21137428,-9.54257679,-1.59840548
10.46301845,-14.89771366,-8.286344528,-1.59840548
10.4677734,-13.80897903,-7.226324558,-1.21555388
10.47252829,-12.8255291,-6.285944939,-0.7537391186
10.47728319,-12.05743313,-5.625525951,-0.1938186288
10.48203808,-11.34676456,-5.058426857,0.1411765367
10.48679298,-10.62652493,-5.034498692,0.1387837082
10.49154788,-9.791430473,-6.151947021,-0.6556333899
10.49630277,-8.46102047,-8.394021988,-1.605584025
10.50105767,-7.142575741,-10.97587776,-1.643869162
10.50581256,-6.403193474,-13.33759308,-0.9116654396
10.51056751,-5.814558983,-15.18006706,0.09571290761
10.51532241,-5.278566837,-16.54397583,0.8805587292
10.5200773,-4.697110653,-17.42692757,1.153340459
10.5248322,-3.761517286,-17.95574188,0.3302095234
10.52958709,-2.825923443,-18.0083828,-1.713261008
10.53434199,-1.277767301,-17.67578125,-5.139782906
10.53909689,0.002392822644,-17.18525314,-9.722038269
10.54385178,0.4115654826,-16.42672729,-10.9615202
10.54860668,0.5072783828,-14.54357624,-9.437292099
10.55336157,-0.1435693651,-12.80638695,-4.902893543
10.55811652,-0.1890329868,-10.88255692,-0.1052841991
10.56287142,-0.05982056633,-9.394221306,2.026720762
10.56762631,0.3613162339,-8.501698494,2.218146563
10.57238121,0.1507478207,-8.140382767,1.832902193
10.57713611,0.2321037948,-7.886743546,2.024327993
10.581891,0.4689932466,-7.609176159,2.280359983
10.5866459,0.70348984,-7.515855789,2.342573404
10.59140079,0.8781659007,-7.549355507,2.294716835
10.59615569,0.8327022791,-7.678567886,2.179861546
10.60091058,0.8590233326,-7.850851059,1.866401672
10.60566553,0.8781659007,-8.114061356,1.708475351
10.61042043,0.8949156404,-8.484949112,1.689332843
10.61517532,0.9619147182,-8.97308445,1.804188251
10.61993022,0.9164510965,-9.518648148,1.763510346
10.62468512,0.9834501147,-10.12403297,1.667797327
10.62944001,1.079162955,-10.69591713,1.684547186
10.63419491,1.19880414,-11.24626637,1.727617979
10.6389498,1.392622828,-11.75833035,1.919043779
10.6437047,1.622333765,-12.21296692,2.227717876
10.64845959,1.842473388,-12.44746304,2.567498684
10.65321449,2.019542217,-12.47856998,2.790031195
10.65796939,2.01475668,-12.16032505,2.859423161
10.66272433,1.864008784,-11.34915733,2.773281336
10.66747923,1.593619823,-10.35852909,2.842673302
10.67223413,1.24666059,-9.410971642,2.928814888
10.67698902,0.94277215,-8.618947029,2.914458036
10.68174392,0.7106683254,-7.922635555,2.945564747
10.68649881,0.5288137794,-7.429714203,2.95752883
10.69125371,0.3780659735,-7.094718933,2.868994236
10.69600861,0.2249253243,-6.982256413,2.766103029
10.7007635,0.07896314561,-6.999006271,2.691925526
10.7055184,-0.04785645381,-7.068397999,2.555534601
10.71027329,-0.2129612118,-7.221538544,2.498106956
10.71502819,-0.390030086,-7.458428383,2.39760828
10.71978308,-0.6293123364,-7.716853142,2.309073925
10.72453803,-0.8231309652,-7.980063438,2.201396942
10.72929293,-1.091127157,-8.250452042,2.148754835
10.73404782,-1.40697968,-8.532805443,2.158325911
10.73880272,-1.679761529,-8.800801277,2.146361828
10.74355762,-1.959721804,-9.035298347,2.146361828
10.74831251,-2.258824587,-9.262616158,2.23728919
10.75306741,-2.517249346,-9.437292099,2.232503414
10.7578223,-2.821137905,-9.554540634,2.143969059
10.7625772,-3.086741209,-9.62154007,2.096112728
10.76733209,-3.280559778,-9.623932838,2.108076811
10.77208699,-3.457628727,-9.544969559,2.148754835
10.77684189,-3.59641242,-9.454042435,2.258824587
10.78159678,-3.744767427,-9.372686386,2.347358942
10.78635168,-3.90030098,-9.293723106,2.419143677
10.79110657,-4.086941242,-9.221938133,2.538784742
10.79586147,-4.302295208,-9.190832138,2.940778971
10.80061642,-4.419543266,-9.114261627,3.184846878
10.80537131,-4.572684288,-9.040083885,3.110669374
10.81012621,-4.735395908,-9.042476654,3.321237803
10.81488111,-4.93878603,-9.075976372,3.316452265
10.819636,-5.225924492,-8.949156761,3.189632654
10.8243909,-5.596812248,-8.860622406,2.916850805
10.82914579,-5.869594097,-8.817551613,2.737389088
10.83390069,-5.998806477,-8.915657043,2.569891453
10.83865558,-6.065805435,-8.800801277,2.160718918
10.84341048,-6.046662807,-8.690732002,1.799402595
10.84816538,-5.886343479,-8.580661774,1.543370605
10.85292027,-5.766702652,-8.403593063,1.237089276
10.85767517,-5.603990555,-8.298309326,0.8853443861
10.86243006,-5.304887772,-8.269595146,0.3613162339
10.86718496,-4.17069006,-8.599804878,-1.308874011
10.87193991,-2.670390129,-9.51386261,-6.123233318
10.8766948,-2.962314367,-9.772287369,-10.57866859
10.8814497,-3.627519131,-9.329615593,-14.93360615
10.88620459,-2.201396942,-8.441878319,-15.15853119
10.89095949,-3.194418192,-7.781459332,-9.580862045
10.89571439,-4.046263218,-7.329215527,-5.123033047
10.90046928,-3.945764542,-7.068397999,-2.163111687
10.90522418,-4.115654945,-7.022934437,-0.6939185858
10.90997907,-3.555734396,-7.154539585,-0.6197410822
10.91473397,-3.170490026,-7.410571575,-0.1459621787
10.91948886,-2.883351326,-7.692924976,0.1292124242
10.92424376,-2.469393015,-7.934599876,0.2057827413
10.92899866,-2.232503414,-8.176275253,0.3708875179
10.93375355,-2.06261301,-8.350951195,0.8470591903
10.93850845,-1.892722726,-8.494520187,1.301695466
10.94326334,-1.641476393,-8.650053978,1.739582062
10.94801824,-1.399801254,-8.874979019,2.368894339
10.95277314,-1.210768223,-9.20758152,2.962314367
10.95752803,-0.8638089895,-9.714859962,3.366701365
10.96228293,-0.2943171859,-10.22931671,3.37387991
10.96703782,0.2679961324,-10.63848972,3.144168854
10.97179272,0.8733802438,-11.13619614,2.761317253
10.97654762,1.399801254,-11.59322548,2.136790514
10.98130251,1.866401672,-11.99043465,1.450050473
10.98605741,2.254039049,-12.41874981,1.129412293
10.99081236,2.488535643,-12.76810169,1.320838094
10.99556725,2.213361025,-12.92124271,1.617548108
11.00032215,1.610369682,-13.13898945,2.194218397
11.00507704,1.048056364,-13.28495121,2.804388046
11.00983194,0.2727817893,-13.33759308,3.235096216
11.01458683,-0.6221339107,-13.24427319,3.584448338
11.01934173,-1.581655741,-13.06241894,4.029513359
11.02409663,-2.507678032,-12.73220921,4.493721008
11.02885152,-3.335594654,-12.37328625,4.986642361
11.03360642,-4.031906128,-11.99761295,5.434100151
11.03836131,-4.575077057,-11.68175983,5.860022545
11.04311621,-5.161318302,-11.48076344,6.070590973
11.0478711,-5.867201328,-11.37308598,6.008377552
11.052626,-6.841079712,-11.31565857,5.544169903
11.0573809,-8.169096947,-11.43290615,4.331008911
11.06213579,-9.944570541,-11.6267252,2.52682066
11.06689069,-11.78225899,-11.67218876,1.083948612
11.07164558,-12.95234871,-11.75833035,0.8255237937
11.07640048,-13.76351547,-11.72961617,0.8877372146
11.08115538,-14.01476192,-11.50229836,0.94277215
11.08591027,-13.62233925,-11.01894855,0.9906286001
11.09066517,-12.83988667,-10.3346014,0.8566305041
11.09542006,-11.966506,-9.686145782,0.708275497
11.10017496,-11.1433754,-9.140582085,0.5455635786
11.10492986,-10.51884842,-8.654839516,0.4283152521
11.10968475,-10.04746246,-8.219346046,0.3230310678
11.11443965,-9.64068222,-7.76949501,0.2751746178
11.11919454,-9.212367058,-7.329215527,0.313459754
11.12394944,-8.72423172,-6.881757736,0.4785645306
11.12870433,-8.128418922,-6.525227547,0.6436693072
11.13345923,-7.393822193,-6.314659119,0.7585247755
11.13821413,-6.575476646,-6.264409542,0.8542376757
11.14296902,-5.795416355,-6.431907177,0.9044869542
11.14772392,-5.137390137,-6.831508636,0.9547362328
11.15247881,-4.558327198,-7.379465103,0.9714859724
11.15723371,-3.979264021,-8.080561638,0.9188438654
11.16198861,-3.503092289,-8.934800148,0.9547362328
11.1667435,-3.072384357,-9.934999466,1.014556766
11.1714984,-2.811566591,-11.08833981,1.002592683
11.17625329,-2.644068956,-12.45942783,1.16769743
11.18100819,-2.510071039,-14.00519085,1.361516118
11.18576308,-2.452643156,-15.65623856,1.371087432
11.19051798,-2.467000246,-17.17328835,1.186840057
11.19527288,-2.124826431,-18.75733757,0.9786644578
11.20002777,-1.947757602,-19.79342842,0.7872386575
11.20478267,-1.883151412,-20.49213219,0.5216353536
11.20953756,-1.775474429,-20.80798531,0.2201396823
11.21429246,-1.804188251,-21.09273148,0.2081755698
11.21904736,-1.696511269,-21.39901352,0.4474578202
11.22380225,-1.349551916,-21.80579185,1.019342422
11.22855715,-0.8446664214,-22.13360977,1.464407444
11.23331204,-0.3565305769,-22.14318085,1.899901152
11.23806694,0.1674975902,-21.97568321,2.246860504
11.24282183,0.5120640397,-21.46601105,2.543570518
11.24757673,0.650847733,-20.73380852,2.74935317
11.25233163,0.6388836503,-19.97289085,2.964707375
11.25708652,0.7728816867,-19.1258316,2.90967226
11.26184142,0.8685946465,-18.25723648,2.624926329
11.26659631,1.330409408,-17.17807388,1.95015049
11.27135121,2.050648928,-15.95773411,0.837487936
11.2761061,2.79720974,-14.61536026,-0.6699903607
11.280861,3.476771355,-13.39502144,-2.009970903
11.2856159,3.797409534,-12.06221867,-3.170490026
11.29037079,3.687339783,-10.72223854,-4.029513359
11.29512569,3.266202927,-9.547362328,-4.52482748
11.29988058,2.727817774,-8.523234367,-4.469792843
11.30463548,2.187039852,-7.745566845,-4.130012035
11.30939038,1.51944232,-7.298109055,-3.665804386
11.31414527,1.004985452,-7.054041386,-3.136990547
11.31890017,0.5383850932,-7.077969551,-2.675175667
11.32365506,0.2273181528,-7.357929707,-2.299502611
11.32840996,0.04067798331,-7.501499176,-1.962114573
11.33316486,-0.1268195957,-7.520641804,-1.789831281
11.33791975,-0.2249253243,-7.520641804,-1.672582984
11.34267465,-0.2703889608,-7.525427341,-1.462014675
11.34742954,-0.313459754,-7.487142086,-1.160519004
11.35218444,-0.337387979,-7.345965385,-0.7298108935
11.35693933,-0.390030086,-7.133004189,-0.3756731451
11.36169423,-0.342173636,-6.850651264,-0.08614161611
11.36644913,-0.2799602449,-6.453442574,0.3038884699
11.37120402,-0.1914258152,-6.015556335,0.5335994363
11.37595892,-0.1555334777,-5.577669621,0.7417750359
11.38071381,-0.1268195957,-5.091926575,0.7920243144
11.38546871,-0.1148554832,-4.58943367,0.7776673436
11.39022361,-0.05264209956,-4.024727821,0.8087740541
11.3949785,-0.0143569354,-3.498306751,0.8494520187
11.3997334,0.1124626622,-2.962314367,0.8111668825
11.40448829,0.2392822653,-2.52682066,0.7752745152
11.40924319,0.3780659735,-2.019542217,0.8350951076
11.41399808,0.7130611539,-1.643869162,0.5790630579
11.41875298,0.7776673436,-1.531406522,0.3445664644
11.42350788,0.8183453679,-1.670190215,0.08135596663
11.42826277,0.8973084688,-1.962114573,-0.2009970993
11.43301767,1.004985452,-2.404786825,-0.4115654826
11.43777256,1.232303619,-2.835494757,-0.5599204898
11.44252746,1.505085468,-3.156133175,-0.6675975323
11.44728236,1.751546144,-3.37387991,-0.7298108935
11.45203725,1.938186288,-3.471985579,-0.8327022791
11.45679215,2.072184324,-3.524627686,-1.095912814
11.46154704,2.160718918,-3.519842148,-1.507478237
11.46630189,2.170290232,-3.538984776,-2.038684845
11.47105683,2.134397745,-3.527020693,-2.656033039
11.47581168,2.01475668,-3.608376503,-3.409772158
11.48056657,1.686939955,-3.713660717,-4.33340168
11.48532147,1.091127157,-3.873979807,-5.11585474
11.49007636,0.2297109663,-4.046263218,-5.304887772
11.49483126,-0.784845829,-4.261617184,-4.788038254
11.49958616,-2.139183521,-4.675575256,-4.163511276
11.50434105,-3.598805189,-5.103890896,-3.579662561
11.50909595,-5.166104317,-5.630311489,-2.084148407
11.51385084,-6.924828529,-6.223731518,-0.3158525825
11.51860574,-8.92283535,-6.673582554,2.100898266
11.52336064,-11.10509014,-7.532605648,5.015356064
11.52811553,-13.1772747,-8.614161491,8.142775536
11.53287043,-14.69671631,-9.982855797,11.21515942
11.53762532,-15.30927944,-11.83968639,12.50967693
11.54238022,-16.05823326,-13.94058514,11.60758305
11.54713512,-16.73061562,-16.03669739,9.422935486
11.55189001,-17.5944252,-17.6446743,6.879364967
11.55664491,-18.80997849,-18.44626999,4.740181446
11.5613998,-19.80778503,-18.17348862,3.199203968
11.5661547,-20.74098587,-16.65643883,2.0769701
11.57090959,-20.97787666,-14.82832146,1.028913736
11.57566449,-20.89891243,-13.11266804,-0.1316052526
11.58041933,-20.4059906,-11.36112213,-1.275374413
11.58517423,-19.5637188,-9.796216011,-1.808973908
11.58992913,-17.11346817,-8.379665375,-2.026720762
11.59468402,-14.68475246,-7.245467186,-2.227717876
11.59943892,-12.48335552,-6.520441532,-2.359323025
11.60419381,-10.71266651,-6.195017815,-2.210968018
11.60894871,-9.422935486,-6.319444656,-1.765903115
11.61370361,-8.384450912,-6.879364967,-1.292124271
11.6184585,-7.458428383,-7.989634991,-1.1820544
11.6232134,-6.640082836,-9.652647018,-1.485942841
11.62796829,-5.986842155,-11.68654537,-1.751546144
11.63272319,-5.596812248,-13.64626789,-1.253839016
11.63747808,-5.575276852,-15.36670685,0.0765703246
11.64223298,-5.769095421,-16.72343826,2.136790514
11.64698788,-5.958128452,-17.61117554,3.99601388
11.65174277,-5.709274769,-18.07538223,4.725824833
11.65649767,-4.977071285,-17.93420601,4.658825874
11.66125251,-4.201796532,-17.31207275,3.905086517
11.66600741,-3.443271875,-16.45065498,2.806781054
11.6707623,-2.163111687,-15.3475647,0.2967100143
11.6755172,0.1651047617,-13.67498112,-4.843072891
11.68027209,1.904686809,-12.57188988,-9.693324089
11.68502699,2.404786825,-10.53320503,-8.958727837
11.68978189,2.053041935,-9.085547447,-4.929214478
11.69453678,0.8925228715,-8.343772888,-0.007178467698
11.69929168,0.2656033039,-8.279166222,2.478964329
11.70404657,-0.1196411327,-8.712266922,2.340180635
11.70880147,0.04546362907,-9.104690552,2.258824587
11.71355636,0.5024927258,-9.51386261,2.256431818
11.71831126,0.8255237937,-9.882357597,2.050648928
11.72306616,1.138983607,-10.18385315,1.753939033
11.72782105,1.442872047,-10.39681435,1.579262972
11.73257595,1.483550072,-10.66241741,1.339980721
11.73733079,1.452443361,-10.87537861,1.289731383
11.74208569,1.473978758,-11.08833981,1.268195987
11.74684058,1.414158225,-11.39940739,1.251446247
11.75159548,1.339980721,-11.74875927,1.282552958
11.75635038,1.380658627,-11.99282742,1.289731383
11.76110527,1.533799291,-12.14357471,1.485942841
11.76586017,1.641476393,-12.12203979,1.737189293
11.77061506,1.773081541,-11.93779182,1.986042738
11.77536996,1.85443759,-11.51186943,2.067398787
11.78012486,1.744367719,-10.76291656,1.837687731
11.78487975,1.517049551,-9.796216011,1.600798368
11.78963465,1.316052437,-8.903693199,1.605584025
11.79438949,1.100698471,-8.149953842,1.713261008
11.79914439,0.9475577474,-7.525427341,1.770688772
11.80389928,0.8327022791,-6.979863644,1.741974831
11.80865418,0.7202396393,-6.556334019,1.694118381
11.81340907,0.5527420044,-6.235695839,1.686939955
11.81816397,0.390030086,-6.051448345,1.701296926
11.82291886,0.2392822653,-6.025127411,1.710868239
11.82767376,0.07417750359,-6.080162525,1.703689694
11.83242866,-0.09571290761,-6.252445698,1.706082582
11.83718355,-0.2823530734,-6.518048763,1.670190215
11.84193845,-0.4378865361,-6.814758778,1.651047587
11.84669334,-0.679561615,-7.14496851,1.59840548
11.85144819,-0.8973084688,-7.465606689,1.552941918
11.85620308,-1.189232826,-7.814958572,1.51944232
11.86095798,-1.47158587,-8.178668022,1.507478237
11.86571288,-1.756331801,-8.528019905,1.543370605
11.87046777,-2.026720762,-8.865407944,1.564906001
11.87522267,-2.268395901,-9.1860466,1.567298889
11.87997756,-2.536391973,-9.456435204,1.636690736
11.88473246,-2.742174864,-9.662218094,1.823330879
