"Time (s)","Acceleration x (m/s^2)","Acceleration y (m/s^2)","Acceleration z (m/s^2)"
4.032915500E-1,-3.023876667E0,4.774038315E0,7.123049259E0
4.082715500E-1,-3.538630009E0,3.725377798E0,6.818985939E0
4.132645500E-1,-3.787626982E0,2.990357876E0,6.467038155E0
4.182605500E-1,-3.833117008E0,2.487575531E0,6.122272968E0
4.232578830E-1,-3.804386616E0,2.114080191E0,5.799055576E0
4.282558830E-1,-3.828328609E0,1.764526606E0,5.483021259E0
4.332542830E-1,-4.005499363E0,1.450886250E0,5.183745861E0
4.382529490E-1,-4.299986362E0,1.134851575E0,4.876988888E0
4.432518060E-1,-4.431667328E0,6.248866320E-1,4.465186119E0
4.482509310E-1,-4.690241337E0,3.351882398E-1,4.151545525E0
4.532501530E-1,-4.707000732E0,2.825157940E-1,3.926490784E0
4.582494530E-1,-4.491522312E0,2.825157940E-1,3.761290789E0
4.632487250E-1,-4.053383350E0,2.250549644E-1,3.576937437E0
4.682480580E-1,-3.572149038E0,1.915361360E-2,3.280056238E0
4.732474420E-1,-3.181894064E0,-3.591302633E-1,2.863465309E0
4.782469420E-1,-2.932897091E0,-1.039083481E0,2.497152328E0
4.832464750E-1,-2.794033289E0,-1.869871497E0,2.303221941E0
4.882460370E-1,-2.712630510E0,-2.762908697E0,2.217030764E0
4.932455660E-1,-2.683900118E0,-3.672705412E0,2.188300371E0
4.982451210E-1,-2.731784105E0,-4.539406300E0,2.257732153E0
5.032446990E-1,-2.913743496E0,-5.245995045E0,2.516305923E0
5.082442990E-1,-3.227383852E0,-5.818209171E0,2.980781078E0
5.132439180E-1,-3.550601006E0,-6.318597794E0,3.438073635E0
5.182435540E-1,-3.921702385E0,-6.756736279E0,3.835511208E0
5.232432060E-1,-4.426878929E0,-7.120655060E0,4.163516521E0
5.282429140E-1,-4.989815712E0,-7.379229069E0,4.489128113E0
5.332426340E-1,-5.528511047E0,-7.510910034E0,4.783615112E0
5.382423640E-1,-5.985803604E0,-7.563582420E0,5.020940304E0
5.432420670E-1,-6.368875980E0,-7.565976620E0,5.202899456E0
5.482417810E-1,-6.713640690E0,-7.494150639E0,5.313032627E0
5.532415050E-1,-7.036858082E0,-7.352892876E0,5.322609425E0
5.582412710E-1,-7.379229069E0,-7.180510044E0,5.238812447E0
5.632412710E-1,-7.807791233E0,-7.003339291E0,5.090372086E0
5.682413040E-1,-8.298602104E0,-6.799831867E0,4.908412933E0
5.732413040E-1,-8.772654533E0,-6.577171326E0,4.692635536E0
5.782413040E-1,-9.244312286E0,-6.328174591E0,4.469974518E0
5.832413040E-1,-9.723152161E0,-6.048052788E0,4.268861771E0
5.882413040E-1,-1.020917511E1,-5.772719383E0,4.108449936E0
5.932413040E-1,-1.070477486E1,-5.552453041E0,4.003105164E0
5.982412700E-1,-1.123628807E1,-5.425560474E0,3.945644379E0
6.032412700E-1,-1.185399151E1,-5.384859085E0,3.938461781E0
6.082412700E-1,-1.255788708E1,-5.387253284E0,3.976768970E0
6.132413030E-1,-1.332642555E1,-5.372888088E0,4.043806553E0
6.182413030E-1,-1.412848377E1,-5.284302235E0,4.156333923E0
6.232413030E-1,-1.485661983E1,-5.131073475E0,4.288015366E0
6.282412690E-1,-1.545038223E1,-4.925172329E0,4.412513733E0
6.332412350E-1,-1.587176132E1,-4.697423935E0,4.510675907E0
6.382412010E-1,-1.613273048E1,-4.489128113E0,4.611232281E0
6.432412010E-1,-1.627877617E1,-4.311957359E0,4.738125324E0
6.482412010E-1,-1.637933159E1,-4.149151325E0,4.903624535E0
6.532412340E-1,-1.646073532E1,-3.971980572E0,5.114314079E0
6.582412670E-1,-1.649904251E1,-3.749319792E0,5.360917091E0
6.632413000E-1,-1.645594597E1,-3.481169224E0,5.629067421E0
6.682413000E-1,-1.636736107E1,-3.157952070E0,5.945102215E0
6.732413000E-1,-1.624765205E1,-2.817975283E0,6.261136532E0
6.782412660E-1,-1.611118126E1,-2.466027737E0,6.567594528E0
6.832412660E-1,-1.594598198E1,-2.099714994E0,6.852504730E0
6.882412660E-1,-1.571613884E1,-1.702277422E0,7.115866661E0
6.932412990E-1,-1.543362236E1,-1.271321058E0,7.379229069E0
6.982412990E-1,-1.514871311E1,-8.283938169E-1,7.647379398E0
7.032412990E-1,-1.488295650E1,-4.046200812E-1,7.903559208E0
7.082412650E-1,-1.462647724E1,-3.112462163E-2,8.123826027E0
7.132412310E-1,-1.439423943E1,2.370259613E-1,8.303390503E0
7.182411970E-1,-1.422425175E1,4.237737060E-1,8.437465668E0
7.232411970E-1,-1.414284897E1,5.674257874E-1,8.523657799E0
7.282412300E-1,-1.413327217E1,7.038952708E-1,8.554781914E0
7.332412630E-1,-1.415721416E1,8.140285611E-1,8.511686325E0
7.382412960E-1,-1.418115616E1,8.954314590E-1,8.396764755E0
7.432412960E-1,-1.417636776E1,9.552865028E-1,8.231564522E0
7.482412960E-1,-1.412130070E1,9.672574997E-1,8.018480301E0
7.532412620E-1,-1.404708099E1,9.409212470E-1,7.807791233E0
7.582421280E-1,-1.393455315E1,8.427590132E-1,7.570765018E0
7.632429940E-1,-1.377653599E1,6.895300746E-1,7.328950882E0
7.682438940E-1,-1.354429817E1,4.764461517E-1,7.111078262E0
7.732447940E-1,-1.327375317E1,2.130839527E-1,6.936301708E0
7.782456940E-1,-1.297208405E1,-5.506663769E-2,6.850110531E0
7.832465940E-1,-1.250042629E1,-4.381389022E-1,7.340921879E0
7.882474940E-1,-1.179892540E1,-1.158793569E0,9.136572838E0
7.932483940E-1,-1.098968506E1,-1.984793186E0,1.153077507E1
7.982492940E-1,-1.025705910E1,-2.537853718E0,1.323305225E1
8.032501600E-1,-9.636960983E0,-2.750937700E0,1.363288403E1
8.082510260E-1,-9.086295128E0,-2.710236311E0,1.318277359E1
8.132518920E-1,-8.621819496E0,-2.628833532E0,1.222509289E1
8.182527920E-1,-8.265083313E0,-2.523488522E0,1.101123333E1
8.232536920E-1,-8.020874977E0,-2.485181332E0,9.914688110E0
8.282545920E-1,-7.877223015E0,-2.446874142E0,9.138967514E0
8.332554580E-1,-7.803002834E0,-2.224213362E0,8.719982147E0
8.382563240E-1,-7.781454563E0,-1.994369984E0,8.274660110E0
8.432571900E-1,-7.855675220E0,-1.601720929E0,7.896376610E0
8.482580900E-1,-7.807791233E0,-1.149216771E0,7.360075474E0
8.532589900E-1,-7.781454563E0,-6.679822803E-1,6.577171326E0
8.582598900E-1,-7.779060364E0,-2.585737705E-1,5.995380402E0
8.632609900E-1,-7.984961987E0,1.268926859E-1,5.550058842E0
8.682618900E-1,-8.023268700E0,-4.788403213E-2,4.285621166E0
8.732627900E-1,-8.298602104E0,6.200982332E-1,2.456450939E0
8.782636560E-1,-8.233959198E0,-1.771709323E-1,9.145850539E-1
8.832645220E-1,-8.248324394E0,-1.740584612E0,7.422025502E-2
8.882653880E-1,-8.509291649E0,-3.284844637E0,-1.675941199E-1
8.932662880E-1,-8.858845711E0,-4.608838081E0,-4.046200812E-1
8.982671880E-1,-9.438241959E0,-5.353734493E0,-2.681505978E-1
9.032680880E-1,-1.024030018E1,-4.431667328E0,-5.123591423E-1
9.082680880E-1,-1.056112289E1,-4.426878929E0,-8.451532125E-1
9.132680880E-1,-1.059224796E1,-4.906018734E0,-1.132457376E0
9.182680880E-1,-1.049887371E1,-5.351340294E0,-1.458068848E0
9.232680880E-1,-1.028578949E1,-5.571606636E0,-1.762132406E0
9.282680880E-1,-9.890746117E0,-5.559635639E0,-2.070984364E0
9.332680880E-1,-9.419088364E0,-5.430348873E0,-2.406172752E0
9.382680880E-1,-8.839692116E0,-5.298667431E0,-2.738966703E0
9.432680880E-1,-8.207622528E0,-5.224447250E0,-3.055001259E0
9.482680880E-1,-7.544428825E0,-5.217264652E0,-3.318363667E0
9.532680880E-1,-6.950666904E0,-5.212476254E0,-3.481169224E0
9.582680880E-1,-6.455067158E0,-5.171774864E0,-3.526659012E0
9.632680880E-1,-6.040870190E0,-5.092766285E0,-3.466804028E0
9.682680880E-1,-5.686528206E0,-5.016151905E0,-3.311181068E0
9.732680880E-1,-5.334580898E0,-4.982633114E0,-3.093308687E0
9.782680880E-1,-4.970662117E0,-4.973056316E0,-2.810792685E0
9.832680880E-1,-4.659116745E0,-4.951508522E0,-2.284068346E0
9.882680880E-1,-4.458003521E0,-4.843470097E0,-1.326387763E0
9.932680880E-1,-4.328716755E0,-4.685452938E0,-2.753331959E-1
9.982680880E-1,-4.285621166E0,-4.429273129E0,8.499416113E-1
1.003268088E0,-4.338293552E0,-4.141968727E0,1.790862918E0
1.008268088E0,-4.501099110E0,-3.892971992E0,2.499546528E0
1.013267888E0,-4.709394932E0,-3.732560396E0,2.916137695E0
1.018267888E0,-4.949114323E0,-3.737348795E0,3.148375273E0
1.023267888E0,-5.183745861E0,-3.928884983E0,3.236960649E0
1.028267888E0,-5.404012680E0,-4.345476151E0,3.229778051E0
1.033267888E0,-5.650615215E0,-4.987421513E0,3.172317266E0
1.038267888E0,-5.928342819E0,-5.787084579E0,3.129221678E0
1.043267888E0,-6.246771336E0,-6.615478516E0,3.078943491E0
1.048267888E0,-6.627449512E0,-7.501333237E0,2.997540474E0
1.053267888E0,-7.051223278E0,-8.363245964E0,2.841917515E0
1.058267888E0,-7.501333237E0,-9.182063103E0,2.583343744E0
1.063267888E0,-7.944260597E0,-9.919476509E0,2.217030764E0
1.068267888E0,-8.336909294E0,-1.049169159E1,1.790862918E0
1.073267888E0,-8.703222275E0,-1.080054283E1,1.369483352E0
1.078267888E0,-9.083900452E0,-1.093701267E1,9.313444495E-1
1.083267888E0,-9.522039413E0,-1.088194561E1,5.315127969E-1
1.088267888E0,-9.692028046E0,-1.096334839E1,2.082955539E-1
1.093267888E0,-9.591471672E0,-1.099926186E1,-4.788403213E-2
1.098267888E0,-9.184456825E0,-1.081969643E1,-2.322375625E-1
1.103267888E0,-8.664915085E0,-1.054436398E1,-3.591302633E-1
1.108267888E0,-8.133402824E0,-1.023311710E1,-4.525041282E-1
1.113267888E0,-7.580341816E0,-9.945813179E0,-5.171475410E-1
1.118267888E0,-7.034463882E0,-9.665691376E0,-5.770025849E-1
1.123267888E0,-6.495768547E0,-9.366415977E0,-6.560112834E-1
1.128267888E0,-5.959467411E0,-8.966584206E0,-7.469909191E-1
1.133267888E0,-5.463867664E0,-8.418312073E0,-8.212111592E-1
1.138267888E0,-4.987421513E0,-7.769483566E0,-8.547300100E-1
1.143267888E0,-4.525041103E0,-7.132626057E0,-8.331822157E-1
1.148267888E0,-4.046200752E0,-6.510133743E0,-7.876923680E-1
1.153267888E0,-3.574543238E0,-5.906795025E0,-7.469909191E-1
1.158267888E0,-3.143586874E0,-5.341763496E0,-6.991068721E-1
1.163267888E0,-2.741360903E0,-4.841075897E0,-6.440402865E-1
1.168267888E0,-2.353500366E0,-4.376600742E0,-5.626373887E-1
1.173267888E0,-2.013523579E0,-3.969586372E0,-4.788403511E-1
1.178267888E0,-1.702277422E0,-3.591302633E0,-3.950432837E-1
1.183267888E0,-1.419761658E0,-3.241749048E0,-3.112462163E-1
1.188267888E0,-1.156399369E0,-2.906560898E0,-2.322375625E-1
1.193267888E0,-9.528923035E-1,-2.640804529E0,-1.651999205E-1
1.198267888E0,-8.020575643E-1,-2.439691544E0,-9.576806426E-2
1.203267888E0,-7.062895298E-1,-2.303221941E0,-1.436521020E-2
1.208267888E0,-6.344634295E-1,-2.205059767E0,4.788403213E-2
1.213267888E0,-5.770025849E-1,-2.142810583E0,1.268926859E-1
1.218267888E0,-5.123591423E-1,-2.114080191E0,1.987187415E-1
1.223267888E0,-4.333505034E-1,-2.111685991E0,2.274491638E-1
1.228267888E0,-3.112462163E-1,-2.166752577E0,2.753331959E-1
1.233267888E0,-1.915361285E-1,-2.331952572E0,3.734954596E-1
1.238267888E0,-8.379705995E-2,-2.667140722E0,5.626373887E-1
1.243267888E0,3.591302410E-2,-3.110068083E0,7.374141216E-1
1.248267888E0,2.226607651E-1,-3.677493811E0,8.690952063E-1
1.253267888E0,4.525041282E-1,-4.431667328E0,1.005564690E0
1.258267888E0,7.254431248E-1,-5.325003624E0,1.101332784E0
1.263267888E0,9.792284966E-1,-6.256348133E0,1.137245774E0
1.268267221E0,1.201889277E0,-7.206846237E0,1.034295082E0
1.273266321E0,1.345541358E0,-8.334515572E0,8.307880163E-1
1.278265421E0,1.551442742E0,-9.862015724E0,5.770025849E-1
1.283264921E0,2.118868589E0,-1.182047272E1,3.399766386E-1
1.288264421E0,2.896984100E0,-1.457619953E1,5.746084079E-2
1.293263921E0,3.914519787E0,-1.799541855E1,-2.968810201E-1
1.298263421E0,5.147832870E0,-2.165615273E1,-6.440402865E-1
1.303262921E0,6.320991993E0,-2.502030563E1,-1.012747288E0
1.308262454E0,7.309797287E0,-2.789813614E1,-1.300051570E0
1.313261987E0,8.401553154E0,-3.033064461E1,-1.587355733E0
1.318261520E0,9.694421768E0,-3.189884758E1,-1.891419291E0
1.323261020E0,1.056591129E1,-3.220051575E1,-2.104503393E0
1.328260520E0,1.064013195E1,-3.114467430E1,-2.159569979E0
1.333260520E0,1.029536629E1,-2.948788643E1,-2.109291792E0
1.338260520E0,9.699210167E0,-2.751027489E1,-1.984793186E0
1.343260520E0,8.973767281E0,-2.537704086E1,-1.757344007E0
1.348260520E0,8.054393768E0,-2.309028053E1,-6.775590777E-1
1.353260553E0,7.051223278E0,-2.045426369E1,1.826775908E0
1.358260586E0,5.832574844E0,-1.753333855E1,6.531681538E0
1.363260619E0,4.797980309E0,-1.493084049E1,9.601048470E0
1.368260619E0,3.962403774E0,-1.272787571E1,1.104954052E1
1.373260619E0,3.325546265E0,-1.090828228E1,1.115727901E1
1.378260619E0,2.844311714E0,-9.428665161E0,1.014453220E1
1.383260619E0,2.477998734E0,-8.224382401E0,8.674491882E0
1.388260619E0,2.200271368E0,-7.221211433E0,7.075165272E0
1.395972922E0,2.008735180E0,-6.383241177E0,5.514145851E0
1.400972922E0,1.881842494E0,-5.681739807E0,4.091690540E0
1.405972955E0,1.788468719E0,-5.097554684E0,2.856282711E0
1.410972988E0,1.714248419E0,-4.604049683E0,1.831564307E0
1.415973021E0,1.651999116E0,-4.218583584E0,1.039083481E0
1.420973687E0,1.594538331E0,-3.931279182E0,4.333505034E-1
1.425974587E0,1.498770237E0,-3.751713991E0,-3.351882473E-2
1.430975487E0,1.426944256E0,-3.708618402E0,-3.567360640E-1
1.435976020E0,1.379060149E0,-3.761290789E0,-5.746083856E-1
1.440976553E0,1.340752959E0,-3.890577793E0,-7.086837292E-1
1.445977086E0,1.300051570E0,-4.106055737E0,-7.829039693E-1
1.450977586E0,1.264138460E0,-4.417302132E0,-8.307880163E-1
1.455978086E0,1.264138460E0,-4.821922302E0,-8.762778044E-1
1.460978552E0,1.302445769E0,-5.310638428E0,-9.193734527E-1
1.465979018E0,1.395819545E0,-5.892429829E0,-9.816226959E-1
1.470979484E0,1.541865945E0,-6.610690117E0,-1.079784989E0
1.475979984E0,1.711854219E0,-7.340921879E0,-1.180341482E0
1.480980517E0,1.912967205E0,-8.164526939E0,-1.259350061E0
1.485980550E0,2.152387381E0,-9.031228065E0,-1.335964561E0
1.490980583E0,2.437297344E0,-9.950601578E0,-1.434126854E0
1.495980183E0,2.762908697E0,-1.088912868E1,-1.513135433E0
1.500980183E0,3.081337690E0,-1.179413700E1,-1.460463047E0
1.505980149E0,3.318363667E0,-1.260816574E1,-1.158793569E0
1.510980149E0,3.387795448E0,-1.322826385E1,-6.536170840E-1
1.515980149E0,3.220201254E0,-1.356345177E1,9.576806799E-3
1.520980182E0,2.875436306E0,-1.362091255E1,7.254431248E-1
1.525980215E0,2.461239338E0,-1.343416500E1,1.424550056E0
1.530980215E0,2.063801765E0,-1.314446640E1,2.027888775E0
1.535980215E0,1.723825216E0,-1.276378822E1,2.482787132E0
1.540980215E0,1.438915253E0,-1.231607246E1,2.767697096E0
1.545980215E0,1.185129881E0,-1.185159779E1,2.889801502E0
1.550980215E0,9.696516991E-1,-1.142064095E1,2.834734917E0
1.555980181E0,5.506663918E-1,-1.099447346E1,2.521094322E0
1.560980181E0,-2.801215947E-1,-1.044380665E1,2.070984364E0
1.565980181E0,-6.799532771E-1,-9.871592522E0,1.936909199E0
1.570980214E0,-6.775590777E-1,-9.397541046E0,1.759738207E0
1.575981214E0,-5.961562395E-1,-9.026439667E0,1.534683347E0
1.580980647E0,-5.315127969E-1,-8.770259857E0,1.271321058E0
1.585980613E0,-3.734954596E-1,-8.643367767E0,1.115697980E0
1.590980579E0,-1.915361360E-2,-8.643367767E0,1.180341482E0
1.595979879E0,4.644751251E-1,-8.736741066E0,1.400607944E0
1.600979212E0,9.624691010E-1,-8.873210907E0,1.594538331E0
1.605978578E0,1.343147159E0,-9.002497673E0,1.649604917E0
1.610978144E0,1.546654344E0,-9.100660324E0,1.522712231E0
1.615977510E0,1.587355733E0,-9.194033623E0,1.256955862E0
1.620976843E0,1.436521053E0,-9.280224800E0,9.552865028E-1
1.625976176E0,1.170764685E0,-9.352050781E0,7.182605267E-1
1.630975476E0,8.499416113E-1,-9.421483040E0,5.578489900E-1
1.635974576E0,5.722141862E-1,-9.517251015E0,4.668693244E-1
1.640974576E0,4.022258818E-1,-9.660902977E0,4.333505034E-1
1.645975009E0,3.615244627E-1,-9.828496933E0,4.525041282E-1
1.650974375E0,4.740519226E-1,-1.001045704E1,4.932055473E-1
1.655974375E0,6.584054828E-1,-1.019959831E1,5.410895944E-1
1.660974341E0,9.050082564E-1,-1.037676907E1,5.913678408E-1
1.665974307E0,1.211466074E0,-1.052521038E1,6.392518282E-1
1.670974273E0,1.503558636E0,-1.062337208E1,7.158663273E-1
1.675974239E0,1.728613615E0,-1.063534355E1,8.068459630E-1
1.680974239E0,1.862688899E0,-1.055872917E1,8.738836050E-1
1.685974272E0,1.912967205E0,-1.039831734E1,9.361328483E-1
1.690974305E0,1.886630893E0,-1.017565632E1,1.003170490E0
1.695974338E0,1.826775908E0,-9.905111313E0,1.074996591E0
1.700974338E0,1.757344007E0,-9.617807388E0,1.127668977E0
1.705974338E0,1.697489023E0,-9.356839180E0,1.132457376E0
1.710974304E0,1.671152830E0,-9.153332710E0,1.074996591E0
1.715974304E0,1.692700624E0,-9.026439667E0,9.744400978E-1
1.720974304E0,1.769315004E0,-8.978555679E0,8.547300100E-1
1.725973337E0,1.881842494E0,-8.997709274E0,7.374141216E-1
1.730973903E0,2.001552582E0,-9.050381660E0,6.416460276E-1
1.735973903E0,2.102109194E0,-9.119813919E0,5.889736414E-1
1.740973903E0,2.169146776E0,-9.210793495E0,5.937620401E-1
1.745974569E0,2.193088770E0,-9.323320389E0,6.536170840E-1
1.750975235E0,2.157175779E0,-9.443030357E0,7.661445141E-1
1.755975468E0,2.061407566E0,-9.541193008E0,9.193734527E-1
1.760975034E0,1.934514999E0,-9.639355659E0,1.094150186E0
1.765974800E0,1.778891921E0,-9.720758438E0,1.273715258E0
1.770974833E0,1.635239720E0,-9.809343338E0,1.434126854E0
1.775975533E0,1.513135433E0,-9.909899712E0,1.539471745E0
1.780975799E0,1.379060149E0,-9.991303444E0,1.577778935E0
1.785976665E0,1.300051570E0,-1.008228302E1,1.587355733E0
1.790976631E0,1.256955862E0,-1.014932060E1,1.565807939E0
1.795976631E0,1.254561663E0,-1.018044472E1,1.505952835E0
1.800977297E0,1.302445769E0,-1.018523312E1,1.410184860E0
1.805976930E0,1.391031146E0,-1.016607952E1,1.290474772E0
1.810976030E0,1.527500629E0,-1.014453220E1,1.156399369E0
1.815975363E0,1.666364431E0,-1.011580181E1,1.017535686E0
1.820975363E0,1.786074519E0,-1.005834103E1,8.834604025E-1
1.825974963E0,1.879448295E0,-9.976937294E0,7.733271718E-1
1.830974963E0,1.927332401E0,-9.866804123E0,6.943184733E-1
1.835974563E0,1.891419291E0,-9.711181641E0,6.631938815E-1
1.840974563E0,1.929726601E0,-9.632172585E0,6.177040339E-1
1.845973696E0,2.092532396E0,-9.646537781E0,5.626373887E-1
1.850972829E0,2.178723574E0,-9.581894875E0,5.434837937E-1
1.855972162E0,2.236184359E0,-9.541193008E0,5.147533417E-1
1.860971528E0,2.315192938E0,-9.569923401E0,5.195417404E-1
1.865970594E0,2.286462545E0,-9.567529678E0,5.530605912E-1
1.870970594E0,2.121262789E0,-9.498097420E0,6.009446383E-1
1.875970594E0,1.833958507E0,-9.378387451E0,6.512228847E-1
1.880970327E0,1.462857246E0,-9.241917610E0,6.991068721E-1
1.885969660E0,1.089361787E0,-9.146149635E0,7.182605267E-1
1.890969660E0,8.044517636E-1,-9.100660324E0,7.158663273E-1
1.895969660E0,6.871358752E-1,-9.160514832E0,6.655880809E-1
1.900969660E0,7.158663273E-1,-9.289801598E0,5.746083856E-1
1.905970060E0,8.690952063E-1,-9.476549149E0,4.309563041E-1
1.910970926E0,1.034295082E0,-9.620202065E0,2.896983922E-1
1.915971792E0,1.110909581E0,-9.665691376E0,1.987187415E-1
1.920972458E0,1.247379065E0,-9.696816444E0,1.412578970E-1
1.925972458E0,1.438915253E0,-9.723152161E0,1.221042871E-1
1.930972891E0,1.611297727E0,-9.711181641E0,1.316810995E-1
1.935972891E0,1.786074519E0,-9.675268173E0,1.771709323E-1
1.940972891E0,1.927332401E0,-9.634567261E0,2.513911724E-1
1.945972857E0,2.114080191E0,-9.615413666E0,3.447650373E-1
1.950972823E0,2.281674147E0,-9.603442192E0,4.333505034E-1
1.955973189E0,2.367865562E0,-9.560346603E0,5.219359994E-1
1.960974089E0,2.425326347E0,-9.522039413E0,6.009446383E-1
1.965974789E0,2.468421936E0,-9.495702744E0,6.823474765E-1
1.970974822E0,2.537853718E0,-9.486125946E0,7.374141216E-1
1.975975255E0,2.609679937E0,-9.462183952E0,7.637503147E-1
1.980975255E0,2.655169725E0,-9.426271439E0,7.781155705E-1
1.985975621E0,2.703053713E0,-9.395146370E0,7.972691655E-1
1.990975587E0,2.731784105E0,-9.364022255E0,8.212111592E-1
1.995976453E0,2.726995707E0,-9.349657059E0,8.667010069E-1
2.000977353E0,2.705447912E0,-9.352050781E0,9.385270476E-1
2.005978053E0,2.758120298E0,-9.462183952E0,1.012747288E0
2.010978686E0,2.880224705E0,-9.624990463E0,1.058237195E0
2.015979586E0,2.985569477E0,-9.797372818E0,1.077390790E0
2.020979552E0,3.004723072E0,-9.873987198E0,1.118092179E0
2.025979518E0,2.710236311E0,-9.742305756E0,1.204283476E0
2.030979784E0,2.355894566E0,-9.550769806E0,1.266532660E0
2.035980450E0,1.984793186E0,-9.280224800E0,1.249773264E0
2.040980450E0,1.678335428E0,-8.980949402E0,1.185129881E0
2.045980483E0,1.493981838E0,-8.679280281E0,1.043871999E0
2.050980516E0,1.474828243E0,-8.456619263E0,8.547300100E-1
2.055980549E0,1.671152830E0,-8.420706749E0,6.392518282E-1
2.060979882E0,2.066195965E0,-8.609848976E0,4.046200812E-1
2.065979882E0,2.549824715E0,-8.959402084E0,1.771709323E-1
2.070979182E0,3.011905670E0,-9.344868660E0,-3.591302410E-2
2.075979148E0,3.356670856E0,-9.670479774E0,-1.939303428E-1
2.080979114E0,3.572149038E0,-9.885957718E0,-2.992752194E-1
2.085979114E0,3.624821424E0,-9.933841705E0,-3.232172430E-1
2.090979147E0,3.588908434E0,-9.895534515E0,-3.088520169E-1
2.095979180E0,3.476380825E0,-9.739912033E0,-2.346317619E-1
