Time (s),X (m/s^2),Y (m/s^2),Z (m/s^2)
6.004414625,-0.8686807156091062,1.494950460034913,0.5265804731011565
6.014337625,-0.7825616576011722,2.1654676786850144,0.5892968909402144
6.024260625,-0.6936640082217717,2.830514067287356,0.6464358414269387
6.034183625,-0.6022542177348768,3.4847616880970045,0.697404858696284
6.044106625,-0.5085932462415431,4.122914397549512,0.7416621494315879
6.054030625,-0.41293479161492846,4.739766121747078,0.7787239703848715
6.063953625,-0.3155241016519096,5.3302582855103795,0.8081716281888444
6.073876625,-0.21659741270317123,5.889535608968493,0.829658001424923
6.083799625,-0.11638203582244443,6.412999541601616,0.8429134888351636
6.093722625,-0.015097089865665513,6.896358668972381,0.8477512931888458
6.103646625,0.08704514032911,7.335675496627632,0.8440719566991243
6.113569625,0.18983726373056115,7.727409084630183,0.8318670696158504
6.123492625,0.29307432556507185,8.068453072834044,0.8112220778328499
6.133415625,0.39655091915373025,8.356168701432207,0.7823181184060964
6.143338625,0.500057974916532,8.588412494887347,0.7454328149674966
6.153261625,0.603379352172982,8.763558341751178,0.7009399690483566
6.163185625,0.7062883719426396,8.880513769116032,0.6493080885118055
6.173108625,0.8085444351787059,8.938730278465107,0.5910977008205188
6.183031625,0.9098898708036243,8.93820767841743,0.5269574075168494
6.192954625,1.0100471523477323,8.879492417790377,0.4576186481514125
6.202877625,1.1087166119535667,8.76366998829899,0.38388915766869613
6.212801625,1.2055747669162258,8.592351529458501,0.3066451210188986
6.222724625,1.3002733574232956,8.367654828685664,0.2268220521599984
6.232647625,1.3924391750869936,8.092179967154218,0.1454044511449043
6.242570625,1.4816747403793449,7.76897991652458,0.06341432221330626
6.252493625,1.5675598633217231,7.4015264430423855,-0.01810133263169349
6.262417625,1.6496540960357788,6.993671723493472,-0.09808389675966163
6.272340625,1.7275000585901528,6.549606121917701,-0.1754772171682895
6.282263625,1.8006275918822583,6.073812616490939,-0.2492421642080781
6.292186625,1.8685586643806649,5.57101840197128,-0.31837143145575325
6.302109625,1.9308129350188166,5.046144223641179,-0.38190431341053166
6.312033625,1.9869138540585818,4.504252022576227,-0.438941185569663
6.321956625,2.0363951688906767,3.9504914879098925,-0.4886574061556624
6.331879625,2.0788076937175655,3.3900461178873753,-0.5303163604086688
6.341802625,2.1137262015905303,2.8280793864458404,-0.5632813761165927
6.351725625,2.140756304586718,2.269681595600091,-0.5870262530815223
6.361649625,2.1595412026406415,1.7198179679667596,-0.6011441706395139
6.371572625,2.1697682021427163,1.183278501952946,-0.6053547673583753
6.381495625,2.17117492871717,0.6646300781906384,-0.5995092257470961
6.391418625,2.1635551803214144,0.16817127222612832,-0.5835932407876423
6.401341625,2.1467643830327576,-0.3021097034957734,-0.5577278019299684
6.411265625,2.1207246203071266,-0.7425735352201371,-0.5221677714561226
6.421188625,2.085429206783611,-1.1499644559779318,-0.4772982957853236
6.431111625,2.040946771066461,-1.5214406683423989,-0.4236291381324052
6.441034625,1.9874248003439619,-1.8546002316428902,-0.361787067915281
6.450957625,1.9250925852096714,-2.1475021325607084,-0.2925064813216351
6.460881625,1.854263487050202,-2.3986822899384928,-0.21661845700443735
6.470804625,1.7753364336939943,-2.607164281622727,-0.13503847171609196
6.480727625,1.6887965323690968,-2.772464626489058,-0.04875301466560914
6.490650625,1.5952146734128545,-2.8945925120344236,0.041194651827479105
6.500573625,1.4952459859179426,-2.9740439291065104,0.13371933365781358
6.510497625,1.3896270021319401,-3.011790257398873,0.227709098016539
6.520420625,1.2791713963825873,-3.0092614286457606,0.3220405759837541
6.530343625,1.1647641894550558,-2.9683238681222077,0.41559414487523805
6.540266625,1.0473543497375017,-2.8912534747235448,0.5072687734876368
6.550189625,0.9279457757696896,-2.780703949798218,0.5959963228753795
6.560113625,0.8075867092277778,-2.6396708331686307,0.6807550993135663
6.570036625,0.6873576988082488,-2.47145165673811,0.7605824569436508
6.579959625,0.5683583043414384,-2.279602680366892,0.8345862536749992
6.589882625,0.45169278441311866,-2.0678927248118417,0.901954984372356
6.599805625,0.338455042605493,-1.840254656469868,0.9619664516544185
6.609729625,0.2297131193154802,-1.6007351069065048,1.013994879939904
6.619652625,0.1264935155436012,-1.3534430288019246,1.0575164244668003
6.629575625,0.029765628661874245,-1.1024977018002733,1.0921130691205403
6.639498625,-0.05957342913335992,-0.8519768084532883,1.1174749433135263
6.649421625,-0.14071337073823034,-0.6058652021042352,1.1334011183277104
6.659345625,-0.2129443875544027,-0.3680049839275655,1.1397989675117728
6.669268625,-0.2756696870989538,-0.14204749372441716,1.1366821929278597
6.679191625,-0.3284167014241679,0.06859220230083826,1.1241676337814586
6.689114625,-0.3708467684781186,0.26077777271548397,1.1024709793661798
6.699037625,-0.4027631038483158,0.4316905116415833,1.0719015117473782
6.708961625,-0.4241168964700309,0.5788641779655013,1.0328560021282112
6.718884625,-0.4350113802192551,0.7002153424197293,0.985811881333942
6.728807625,-0.4357037549269513,0.7940688455510664,0.9313198003629589
6.738730625,-0.42660485559689126,0.8591780175474295,0.8699956920114966
6.748654625,-0.40827649709470926,0.8947393647345059,0.8025124391594808
6.758577625,-0.3814264525804449,0.9004014879181325,0.7295912493028024
6.768500625,-0.34690105689999834,0.8762680641318314,0.6519928284627986
6.778423625,-0.30567546076492463,0.8228947944518674,0.570508441056064
6.788346625,-0.25884159777684074,0.7412802948639056,0.48595093605047923
6.798270625,-0.2075939641490402,0.6328509833522876,0.3991458139322062
6.808193625,-0.1532133501006703,0.4994400932259694,0.3109224034786873
6.818116625,-0.09704870177179428,0.3432610190356326,0.2221052117480873
6.828039625,-0.04049733229592562,0.1668752762780886,0.13350550509683473
6.837962625,0.015016260515741134,-0.026844571155893192,0.04591317397824095
6.847886625,0.06806267537679005,-0.23475659131273027,-0.03991106977045617
6.857809625,0.1172306585940304,-0.45349527961529157,-0.12324311758153107
6.867732625,0.16115056489210097,-0.6795209113010795,-0.2034024676511316
6.877655625,0.19851784141536,-0.9091718309566489,-0.27975876572887776
6.887578625,0.22811612788861166,-1.1387190023179488,-0.3517378417881264
6.897506208,0.2488395528768938,-1.3644220907626852,-0.41882719980181066
6.907429208,0.25971380148940904,-1.5825863075162603,-0.4805809153718943
6.917352208,0.2599155342951507,-1.7896192093343806,-0.5366238926296386
6.927275208,0.24878975077754623,-1.9820866208343886,-0.5866554277208547
6.937198208,0.22586471319581172,-2.1567668292766506,-0.6304520217995183
6.947122208,0.19086407802929897,-2.310702194359754,-0.6678693828574614
6.957045208,0.14371592209309697,-2.441247319870046,-0.698843553932373
6.966968208,0.08455839869681346,-2.5461129515685763,-0.7233911056409792
6.976891208,0.013741815437455156,-2.62340479843926,-0.741608333644388
6.986815208,-0.06817301109669104,-2.6716565241401553,-0.7536694070044007
6.996738208,-0.1604201974858324,-2.6898562232257452,-0.7598234225933551
7.006661208,-0.26203802833332196,-2.6774657821704317,-0.760390335348995
7.016584208,-0.3718818961576174,-2.6344326270511615,-0.7557557548569674
7.026507208,-0.4886407729827028,-2.561193476633312,-0.7463646237779699
7.036431208,-0.6108569565950042,-2.4586698515479806,-0.7327138198570561
7.046354208,-0.7369487554737814,-2.3282552388528455,-0.7153437492674789
7.056277208,-0.8652357027983496,-2.1717939786852463,-0.6948290270701322
7.066200208,-0.9939658225882684,-1.9915521258324542,-0.6717683741222714
7.076123208,-1.1213444138290225,-1.7901807374009453,-0.6467738984758566
7.086047208,-1.2455637773469872,-1.5706722339435255,-0.6204599660316452
7.095970208,-1.364833289440173,-1.336310657662504,-0.5934318901546495
7.105893208,-1.4774092260429232,-1.0906167944161504,-0.5662746784954735
7.115816208,-1.5816237587946653,-0.8372892310784905,-0.5395420704571485
7.125739208,-1.6759125762313698,-0.5801424870786521,-0.51374608657979
7.135663208,-1.7588406259612397,-0.32304339210786126,-0.48934729587218134
7.145586208,-1.8291255240293622,-0.06984688589754995,-0.46674599085858326
7.155509208,-1.885658233295341,0.1756676036378057,-0.4462744434686055
7.165432208,-1.9275206719793612,0.4098580852095481,-0.42819039743429815
7.175356208,-1.9539999756193316,0.6292791646260739,-0.41267193365260546
7.185279208,-1.9645991996198942,0.8307374365487907,-0.39981382344568367
7.195202208,-1.9590443142372274,1.0113421772983948,-0.3896254609206724
7.205125208,-1.937287408207096,1.1685504949871826,-0.3820304403199976
7.215048208,-1.8995060808489839,1.3002061936418128,-0.37686781804228353
7.224972208,-1.8460990655719995,1.4045717229356236,-0.37389507228059593
7.234895208,-1.7776781907097094,1.4803527137471164,-0.37279274607220625
7.244818208,-1.6950568466827898,1.5267147394987735,-0.37317073198017847
7.254741208,-1.5992351911803757,1.5432920906699632,-0.37457612850355393
7.264664208,-1.4913823852096002,1.5301885012902419,-0.3765025692322801
7.274588208,-1.3728162106993667,1.487969917817724,-0.37840089498321433
7.284511208,-1.244980472622725,1.4176495486772374,-0.37969100583319415
7.294434208,-1.1094206330142649,1.320665572896507,-0.3797746937717456
7.304357208,-0.9677581589344505,1.1988520152123652,-0.3780492185329722
7.314281208,-0.8216640901531608,1.054403410380811,-0.37392135152645584
7.324204208,-0.6728323439913884,0.8898339800826467,-0.3668215794681582
7.334127208,-0.5229532726378193,0.7079321306113009,-0.3562181346516297
7.344050208,-0.37368797048599484,0.5117111458754728,-0.34163050670831613
7.353973208,-0.22664379558432587,0.30435699459544024,-0.32264209361746615
7.363897208,-0.0833515229020911,0.08917419090702586,-0.2989116677235457
7.373820208,0.054755508360583516,-0.13046935438534515,-0.2701833633335863
7.383743208,0.1863599529711909,-0.35119757379215744,-0.23629493268299806
7.393666208,0.31027648934269697,-0.5696806862143342,-0.19718406359760074
7.403590208,0.4254651557435162,-0.7826879907506411,-0.15289260290704687
7.413513208,0.5310418966971496,-0.9871381980886499,-0.10356858334269074
7.423436208,0.6262862872670714,-1.1801465293770703,-0.04946600803408753
7.433359208,0.7106464582255352,-1.3590678617086864,0.009057593877876703
7.443282208,0.7837412886131462,-1.5215352573945635,0.07154576571184755
7.453206208,0.8453599627504256,-1.6654932822835913,0.13744974267134386
7.463129208,0.8954590068125068,-1.7892255958588552,0.20613691142090607
7.473052208,0.9341569268048321,-1.8913763818036218,0.2769008977282809
7.482975208,0.9617265669219621,-1.970965282646723,0.348973053735504
7.492898208,0.9785852982676481,-2.0273956072998964,0.4215351072933984
7.502822208,0.9852831393989308,-2.0604556960550697,0.4937327280520462
7.512745208,0.982488911811068,-2.0703134531292675,0.5646897591038242
7.522668208,0.9709745554482898,-2.0575041918948473,0.6335228589953033
7.532591208,0.9515977785720232,-2.0229120815450137,0.6993562911375141
7.542515208,0.9252832922504498,-1.9677456296995761,0.7613365823502447
7.552438208,0.8930029698132032,-1.8935077698075111,0.818646756308868
7.562361208,0.8557553531218163,-1.8019612301657348,0.8705198433578321
7.572284208,0.8145449792966667,-1.6950899346738235,0.91625138367025
7.582207208,0.7703620161435757,-1.575057225636216,0.9552106769376223
7.592131208,0.7241626783400626,-1.4441617146172296,0.9868505824356956
7.602054208,0.6768508606349325,-1.3047915696937558,1.010715727083166
7.611977208,0.6292613776402886,-1.1593780461611256,1.0264490263996335
7.621900208,0.5821451474310255,-1.0103490676707776,1.033796462080519
7.631824208,0.5361566009500357,-0.8600836639565403,1.032610093484382
7.641747208,0.49184354248037604,-0.7108680626655615,1.0228493113439132
7.651670208,0.4496396286510751,-0.5648542090969756,1.004580370749855
7.661593208,0.40985957499298337,-0.42402144604251785,0.9779742663101498
7.671516208,0.372697140837442,-0.29014202880067164,0.9433030349193466
7.681440208,0.3382258866479253,-0.16475108249503284,0.9009345906953182
7.691363208,0.30640264388054717,-0.049121533674909616,0.8513262127153342
7.701286208,0.2770735867477735,0.055755533100127944,0.7950168198732688
7.711209208,0.24998274773087056,0.1491847311722796,0.7326181788765295
7.721133208,0.22478277421200682,0.23077417383288978,0.6648052008541826
7.731056208,0.20104768261816555,0.3004370602651059,0.5923054888326522
7.740979208,0.17828733001592986,0.35838699372204785,0.515888302862684
7.750902208,0.15596329231429754,0.40512709498140087,0.43635311318161524
7.760825208,0.13350581415898144,0.44143309077037873,0.3545179152443412
7.770749208,0.11033147922694703,0.4683306738548201,0.2712074827832302
7.780672208,0.0858612415814873,0.48706754736519325,0.18724173448722284
7.790595208,0.05953845843359659,0.4990806787527085,0.10342438573824075
7.800518208,0.030846569674368104,0.5059593958907539,0.02053205000468156
7.810442208,-0.000673923622082827,0.5094050560940004,-0.06069605357810981
7.820365208,-0.035409523583658134,0.5111881049049932,-0.13956763834094815
7.830288208,-0.07365917982526086,0.5131034123554035,-0.21544599488271793
7.840211208,-0.11562144451036847,0.5169248276687688,-0.2877576143092487
7.850134208,-0.16138365802267862,0.5243599276019365,-0.35599867512488126
7.860058208,-0.21091346584937268,0.537005948350937,-0.41974029463652013
7.869981208,-0.26405293779690925,0.5563078861554556,-0.47863246219468114
7.879904208,-0.3205155200879694,0.5835197268738402,-0.5324065883579959
7.889827208,-0.3798859989733481,0.6196697180928257,-0.5808766227086887
7.899751458,-0.44162359088693526,0.6655305263640278,-0.6239387159766544
7.909674458,-0.5050681983543461,0.7215950254770136,-0.6615694298181418
7.919597458,-0.5694497831328091,0.7880583399295155,-0.6938225279810712
7.929520458,-0.6339007112893198,0.8648066233490751,-0.7208244134725819
7.939444458,-0.6974708256347093,0.951412887929009,-0.742768306885356
7.949367458,-0.7591449080510331,1.04714002247095,-0.7599072905522758
7.959290458,-0.8178621162434316,1.1509509500158732,-0.772546370321066
7.969213458,-0.8725369221422568,1.2615256904460688,-0.7810337301994869
7.979136458,-0.9220810450200072,1.3772849193783134,-0.7857513737540781
7.989060458,-0.9654258603595005,1.4964194617563742,-0.7871053582985259
7.998983458,-1.0015447719127875,1.6169250332648766,-0.7855158322880242
8.008906458,-1.029475054563184,1.7366414474084102,-0.781407083286548
8.018829458,-1.0483387054446667,1.8532954394823997,-0.7751977950749966
8.028753458,-1.0573618772453335,1.9645462165626213,-0.767291699749525
8.038676458,-1.0558925086160016,2.068032819322125,-0.7580687954145009
8.048599458,-1.0434158106267222,2.1614223711746443,-0.7478772834314001
8.058522458,-1.019567314109048,2.242458288811161,-0.7370263623181355
8.068445458,-0.9841432297387604,2.3090075343119523,-0.7257799993745889
8.078369458,-0.9371079208779224,2.3591060041116276,-0.7143517863593979
8.088292458,-0.8785983394115995,2.39100117721192,-0.7029009716085871
8.098215458,-0.8089253282898989,2.4031911874545915,-0.691529746866266
8.108138458,-0.7285717518772039,2.394459544799764,-0.6802818515714789
8.118062458,-0.6381874761287601,2.3639048091448105,-0.6691425391760807
8.127985458,-0.5385812836288211,2.310964616095977,-0.6580399283821963
8.137908458,-0.43070987153775664,2.23543356467908,-0.6468477369164514
8.147831458,-0.3156641412851333,2.1374745989549564,-0.6353893673376229
8.157755458,-0.19465304544141904,2.0176236452897864,-0.6234432843623693
8.167678458,-0.06898530796208668,1.876787400761191,-0.6107495918347189
8.177601458,0.059950622486608186,1.716234301849896,-0.5970176849497816
8.187524458,0.1907079915258906,1.5375788324659307,-0.581934820395241
8.197447458,0.3218041111905146,1.3427594534581717,-0.5651754157721188
8.207371458,0.451743253687618,1.1340105494257338,-0.5464108630168686
8.217294458,0.5790396371158442,0.9138288902387692,-0.5253196209123019
8.227217458,0.7022400899100947,0.6849351920617951,-0.5015973395419409
8.237140458,0.8199460102663446,0.45023143551265526,-0.4749667636466572
8.247064458,0.9308342759767058,0.21275465874810565,-0.44518716147577886
8.256987458,1.033676804676697,-0.024372006339302803,-0.41206303147050694
8.266910458,1.1273585102452957,-0.25799024385809355,-0.37545185250987734
8.276833458,1.2108934447249136,-0.4849585631468234,-0.33527066558990765
8.286757458,1.283438954702071,-0.7022045340361139,-0.29150130542330893
8.296680458,1.344307715604546,-0.906776358147157,-0.24419413827763978
8.306603458,1.3929775360699825,-1.095892882583075,-0.19347020628001133
8.316526458,1.4290988467458627,-1.2669911738550235,-0.13952172759224768
8.326449458,1.4524998033732568,-1.4177707976282161,-0.08261095438383295
8.336373458,1.463188943257548,-1.5462339934536444,-0.023067441987741518
8.346296458,1.4613553381346411,-1.650720991914655,0.03871617303049186
8.356219458,1.4473661861519822,-1.7299397939575736,0.10228975567189184
8.366142458,1.421761783143209,-1.7829898192540723,0.16715246604634054
8.376066458,1.385247812612098,-1.8093789348593023,0.2327606017882171
8.385989458,1.338684903080764,-1.8090335019473083,0.29853631552676607
8.395912458,1.2830754340201718,-1.7823012298912997,0.36387701427919306
8.405835458,1.2195476396304608,-1.7299467961454864,0.4281652214991999
8.415759458,1.1493371611639576,-1.6531403576168475,0.49077865802305437
8.425682458,1.0737663118741219,-1.5534392226578735,0.5511002857720733
8.435605458,0.994221416605077,-1.4327630613337667,0.6085280660030986
8.445528458,0.9121286550663734,-1.2933631080832062,0.6624842147697777
8.455452458,0.8289288752160898,-1.1377858670594105,0.7124237840906699
8.465375458,0.7460518612215121,-0.96883188069497,0.7578424424789715
8.475298458,0.6648905492251572,-0.7895101782694058,0.7982833631170493
8.485221458,0.5867756879873524,-0.6029890883836999,0.833343154985977
8.495144458,0.5129514388889284,-0.4125441730862035,0.8626767990306564
8.505068458,0.444552397115224,-0.22150411143644444,0.8860015794965954
8.514991458,0.38258249127354943,-0.033195415867102916,0.9031000259858023
8.524914458,0.3278961831819419,0.1491131003220081,0.9138219012874964
8.534837458,0.2811823453671285,0.3222651726937168,0.9180852835188357
8.544761458,0.24295114292417588,0.48327032731133784,0.915876799587893
8.554684458,0.2135241901422131,0.629354611974488,0.9072510710235234
8.564607458,0.19302819162156837,0.7580079520453841,0.8923294333867628
8.574530458,0.18139221335712113,0.8670273162686065,0.8712979879329109
8.584454458,0.17834866239845867,0.9545549411101361,0.8444050400482542
8.594377458,0.18343798538212489,1.0191109375742973,0.8119579737170002
8.604300458,0.19601702784614056,1.059619691328654,0.7743196050032171
8.614223458,0.2152709291583911,1.0754295639748885,0.7319040505566081
8.624147458,0.24022836306035308,1.0663255089813155,0.6851721399613147
8.634070458,0.26977987145848764,1.0325343287012063,0.6346263938878154
8.643993458,0.30269897895710385,0.9747224176389542,0.5808055843405698
8.653916458,0.33766571795001854,0.8939859602005329,0.5242788902011084
8.663839458,0.3732921403698218,0.7918336767943589,0.4656396620439235
8.673763458,0.40814934507220096,0.6701623381059816,0.40549881513894304
8.683686458,0.4407955121454301,0.5312253910443329,0.344477877909578
8.693609458,0.4698044093214599,0.3775951586108823,0.2832017339972652
8.703532458,0.4937938223256072,0.2121191875801585,0.2222911090427886
8.713456458,0.5114533609525624,0.03787142094766972,0.16235486810989344
8.723379458,0.5215711059617192,-0.14190103411218008,0.10398220585987161
8.733302458,0.5230585880484673,-0.3238346877844813,0.047734828136063535
8.743225458,0.5149736277627012,-0.5045090692468941,-0.00586076084448184
8.753149458,0.49654061179165954,-0.6805077553266851,-0.05632073824386191
8.763072458,0.46716783319452937,-0.8484799818007736,-0.10321107157770716
8.772995458,0.4264615778094229,-1.00520175591078,-0.1461541120394621
8.782918458,0.37423669422557543,-1.1476353676182927,-0.1848345233895099
8.792842458,0.3105234401711402,-1.272986193867644,-0.21900439729253862
