Time (s),Acceleration x (m/s^2),Acceleration y (m/s^2),Acceleration z (m/s^2)
6.001818075,0.6116743372462953,0.2817825122135875,-0.5649913265294606
6.006572554,0.29323068429801313,1.1247015891037007,-1.9510397812954894
6.011327034,-0.017476032481385233,1.9652189350608928,-3.2962253372284445
6.016081513,-0.30624488653806914,2.803707689597626,-4.584956796220484
6.020835992,-0.5590587495103484,3.640672554114463,-5.80188516875059
6.025590471,-0.7625092600797355,4.476388602730809,-6.931855277891653
6.03034495,-0.904226223373238,5.310561672455469,-7.959957362496867
6.035099482,-0.9733005624776097,6.142029451950386,-8.871695521828647
6.039853961,-0.9606888174101176,6.968519661154339,-9.653278642397044
6.04460844,-0.8595862738840692,7.786478190097071,-10.292027293582665
6.049362919,-0.6657552039521462,8.590975934285561,-10.776877781623472
6.054117398,-0.3777945231637211,9.375698540612703,-11.098952948607533
6.058871877,0.0026624682814442397,10.133018593117622,-11.25215923709035
6.063626357,0.47083457163162246,10.85414517159308,-11.233761895081102
6.068380836,1.018773919667405,11.529341486911825,-11.044885960378258
6.073135367,1.6354498047737667,12.148197739267028,-10.690890845834915
6.077889846,2.306939408702711,12.699943743275586,-10.181571575476093
6.082644325,3.016725427948576,13.173784415378973,-9.531149803161625
6.087398804,3.746095809154807,13.559241004304344,-8.758031684926525
6.092153284,4.4746359435781065,13.846481934074754,-7.884326137414921
6.096907763,5.180799108102019,14.026629189193423,-6.935134706269798
6.101662242,5.842537027482528,14.092029072698907,-5.937641948763049
6.106416721,6.437969447591905,14.036479602650164,-4.920051549072254
6.111171252,6.946069742140998,13.855410433147002,-3.910426830003317
6.115925732,7.347342896835877,13.546014627716746,-2.935503439317164
6.120680211,7.624472667781994,13.107334510544904,-2.0195456776311875
6.12543469,7.762916130048022,12.54030584181529,-1.1833157855657963
6.130189169,7.751425985355129,11.8477654757511,-0.4432179123020616
6.134943648,7.5824836366432296,11.034427417165283,0.18933351254082004
6.139698127,7.252628949566032,10.106830971804326,0.7082863247685455
6.144452659,6.762675659842888,9.073262843456279,1.1130461150066862
6.149207138,6.117804463080429,7.9436530035969835,1.4082938100952507
6.153961617,5.327528890413407,6.729442378265708,1.6035409608820925
6.158716096,4.405532110427822,5.443419234173409,1.7124532390071223
6.163470575,3.369375830014534,4.099520877508809,1.7519851474649848
6.168225054,2.2400855718420116,2.7125980473081204,1.7413782861262874
6.172979534,1.041619894209551,1.2981411882864282,1.7010809244590723
6.177734065,-0.1997653239254257,-0.12802948020356242,1.651647668128143
6.182488544,-1.4562425837210822,-1.5501046666727645,1.6126749601508428
6.187243023,-2.699209519267627,-2.95264792515001,1.6018220880486815
6.191997502,-3.900133830530568,-4.320964779505369,1.6339595186875446
6.196751982,-5.0314199097541366,-5.641460746716061,1.7204776594457194
6.201506461,-6.067267722719591,-6.901966564968366,1.8687801249232956
6.20626094,-6.984492572627365,-8.09200748543162,2.081976682443779
6.211015471,-7.763273722249721,-9.20299499023192,2.3587824364625245
6.21576995,-8.387800610923899,-10.228324178994844,2.693621413986211
6.220524429,-8.846787692719717,-11.16336774825847,3.0769244688392865
6.225278909,-9.133832911650313,-12.005366628594832,3.4956035917854913
6.230033388,-9.24760059771174,-12.753226499528644,3.9336778883913865
6.234787867,-9.191816922690426,-13.40723746063198,4.373021324387435
6.239542346,-8.97507455531444,-13.968740298528948,4.7941991936553565
6.244296825,-8.610452250803167,-14.439766473823049,5.1773589485146125
6.249051357,-8.114964226284917,-14.822679877624525,5.503140911424326
6.253805836,-7.5088627164307535,-15.119846673402948,5.753574771360539
6.258560315,-6.814824473466798,-15.333355571503569,5.912928286663682
6.263314794,-6.057057652106762,-15.464805318506489,5.96847531987921
6.268069273,-5.2603691528658185,-15.515169768322531,5.911151531112048
6.272823752,-4.449233923477803,-15.484744387354112,5.73606811821802
6.277578284,-3.6469069172545,-15.373172086114042,5.442857231057716
6.282332763,-2.8746154691364416,-15.179541345257197,5.035827364566326
6.287087242,-2.1508649830003703,-14.90254597604619,4.523913337941073
6.291841721,-1.4908843668779674,-14.540693556318837,3.92041343353553
6.2965962,-0.9062300553995036,-14.092548458570933,3.2425157172315826
6.301350679,-0.40455922292175883,-13.556995173455725,2.510626078279633
6.306105159,0.010425593773043331,-12.933508038245092,1.7475215193648321
6.31085969,0.3388663408502045,-12.222414244537404,0.9773630155364466
6.315614169,0.5844870673274096,-11.425137924145055,0.22461216707766818
6.320368648,0.7541990476960239,-10.544414069135401,-0.4870957130200836
6.325123127,0.8575982427134281,-9.584461968780484,-1.136063085323614
6.329877607,0.906383456898851,-8.551108741573518,-1.7035636221258261
6.334632138,0.9137252641042298,-7.4518544736712204,-2.174734897003667
6.339386617,0.8936155278756904,-6.295871586973369,-2.539272063793199
6.344141096,0.8602251883522181,-5.093932530010544,-2.7918740897364693
6.348895575,0.827294299194065,-3.858261864484557,-2.932409619149122
6.353650054,0.8075737622257609,-2.602311366625218,-2.9657898533407874
6.358404534,0.8123335769268527,-1.3404598122270117,-2.9015585994571125
6.363159013,0.8509482322323988,-0.08764251418627071,-2.7532315778894056
6.367913544,0.9305663409578203,1.1410807538536476,-2.5374350651598285
6.372668023,1.0558687764551178,2.3310072544515696,-2.2729060509492185
6.377422502,1.2289173944651035,3.468306585898569,-1.9794218573155298
6.382176982,1.4490948766662346,4.540550972184936,-1.6767272280625891
6.386931461,1.7131352083806914,5.537238873854736,-1.3835222836396737
6.39168594,2.0152435642934154,6.4502879091353496,-1.1165664777229223
6.396440471,2.3473035722920024,7.274471526651866,-0.8899427031782255
6.40119495,2.6991686847956444,8.007773434070968,-0.714512846945147
6.405949429,3.059032442739164,8.651634720221129,-0.5975822553428578
6.410703909,3.413869698634057,9.211071044053881,-0.5427766130057646
6.415458388,3.7499375134848947,9.694641203803718,-0.550121548679879
6.420212867,4.0533207817169945,10.114253732492395,-0.6163038151936737
6.424967398,4.310504126044314,10.484804671187009,-0.7350840882554787
6.429721877,4.508948756152865,10.82364702741834,-0.8978259012963574
6.434476357,4.637651260122851,11.149900248884146,-1.0941029702236285
6.439230836,4.687660966181199,11.483615947364267,-1.312347556672974
6.443985315,4.65253357023191,11.844823759142965,-1.5405046870347885
6.448739846,4.528700909965525,12.252488352349635,-1.7666601734327936
6.453494325,4.315739689180744,12.723414950954371,-1.9796139540928865
6.458248804,4.016525271996314,13.27114609783891,-2.1693741337576986
6.463003284,3.6372601986962874,13.904896458060223,-2.3275514048013393
6.467757763,3.1873708261945444,14.628574992824875,-2.4476385444095934
6.472512242,2.6792695790859273,15.439944572252264,-2.525165644508775
6.477266773,2.127984841497759,16.329967861576932,-2.5577286646421595
6.482021252,1.5506655909925253,17.282384997804975,-2.5448964994490324
6.486775732,0.9659734075067626,18.27356310778711,-2.4880093694680014
6.491530211,0.3933802543527969,19.272650078245317,-2.3898881431969126
6.49628469,-0.1476039256644945,20.242055204360696,-2.254479459438443
6.501039169,-0.6382446111530722,21.138267550047416,-2.0864648537723456
6.5057937,-1.0614036199135655,21.913009331293708,-1.8908634469082097
6.510548179,-1.4023309437852567,22.514706823908817,-1.672657245739276
6.515302659,-1.6493892763592044,22.89024577151575,-1.436465875591731
6.520057138,-1.7946732077607739,22.98696269236802,-1.1862937014153656
6.524811617,-1.834487354508798,22.75480857408418,-0.9253669201292427
6.529566148,-1.7696522103794872,22.148607959774875,-0.6560715444037567
6.534320627,-1.6056131769444189,21.130325147244893,-0.3799956474560045
6.539075107,-1.352336801954518,19.671240924810725,-0.09807132944160943
6.543829586,-1.0239883169747577,17.753938688102565,0.18919583631274256
6.548584065,-0.6383956153097274,15.373998555933262,0.4814291038021608
6.553338596,-0.2163162659995212,12.541302705744066,0.7780396726225884
6.558093075,0.21946460817405972,9.280864847257323,1.0778720549928331
6.562847554,0.6451673952941874,5.633111560787014,1.3788677164107896
6.567602034,1.037134932934933,1.6535628730999772,1.6777796276010772
6.572356513,1.3729794317158932,-2.5881166347715623,1.9699688685219354
6.577110992,1.6327012100887492,-7.009697532359188,2.2493107968326482
6.581865523,1.7997196977584453,-11.518567681616352,2.508232617245557
6.586620002,1.8617589580565215,-16.014457673897244,2.737896623588878
6.591374482,1.8115350208323255,-20.392620151734516,2.928534127972144
6.596128961,1.6472005581234743,-24.547345592779504,3.0699243783943815
6.600883492,1.3725137410365944,-28.375673280828483,3.15200095520742
6.605637971,0.9967122531792696,-31.781138380158296,3.165555829908204
6.61039245,0.5340899557498203,-34.67738588556543,3.102999403791768
6.615146929,0.003291821868047292,-36.99148090553544,2.959124665139209
6.619901409,-0.5736386654514908,-38.66675290948943,2.7318165060484514
6.624655888,-1.1724078966717337,-39.66502940729553,2.4226445572317683
6.629410419,-1.7677496818059084,-39.96814163450573,2.0372806828681007
6.634164898,-2.334754858232766,-39.57862001199714,1.5856909817119778
6.638919377,-2.8501711388647,-38.519538365300356,1.0820663069198118
6.643673857,-3.2935931721038645,-36.83351037975873,0.5444735899627144
6.648428388,-3.648471006058074,-34.58088651838108,-0.005769222843914
6.653182867,-3.9028788862557504,-31.837241645877235,-0.5449709708435885
6.657937346,-4.050004051390607,-28.690280017907924,-1.0481548002387273
6.662691825,-4.088335134820064,-25.23631255199509,-1.4902960853818743
6.667446304,-4.021550156357898,-21.576479522853138,-1.8476395195861863
6.672200784,-3.858123301637466,-17.812899165558438,-2.099017610558605
6.676955315,-3.6106863807978122,-14.044919340063243,-2.2270920732284196
6.681709794,-3.295193984231873,-10.365636485119815,-2.21944433515845
6.686464273,-2.92995024113641,-6.858825200374507,-2.069450612935838
6.691218752,-2.5345594946598484,-3.596394852451255,-1.7768896113446635
6.695973284,-2.1288632963980367,-0.6364585872851788,-1.348245760774391
6.700727763,-1.7319223647785424,1.9779330239865949,-0.796687125061215
6.705482242,-1.3610952111847257,4.219374970534515,-0.14171386595506014
6.710236721,-1.0312557744893749,6.076020881976346,0.5915103253385504
6.7149912,-0.7541814242776735,7.550869150059256,1.373115847342916
6.719745732,-0.5381309258611658,8.660490627037728,2.169731909070844
6.724500211,-0.3876202222178397,9.4332872102985,2.9458845925615558
6.72925469,-0.30339290559205073,9.907385948078774,3.665525283105176
6.734009169,-0.2825725959444887,10.12828284162193,4.293620214537266
6.7387637,-0.31897651396171206,10.146354240883523,4.797728773109432
6.743518179,-0.40356356989200315,10.014351880087913,5.149498375010678
6.748272659,-0.524986365192857,9.78499065801468,5.326007103516735
6.753027138,-0.6702145503920346,9.508726901918305,5.310891631545576
6.757781617,-0.8251968086305675,9.231809868557168,5.095206946471557
6.762536096,-0.9755300792441586,8.994671533991806,4.677975666108405
6.767290627,-1.1071072156954105,8.83070025986362,4.066397851611945
6.772045107,-1.2067178086345967,8.765423653865895,3.2757066743179513
6.776799586,-1.262581133045531,8.816105783463339,2.3286705172661923
6.781554065,-1.264794845998627,8.99174470565911,1.2547575079533821
6.786308596,-1.2056879270945757,9.293438806594036,0.08899351035322739
6.791063075,-1.0800711902548967,9.715075363791678,-1.1294413142120425
6.795817554,-0.8853832996140644,10.244282591647861,-2.3588196897130205
6.800572034,-0.6217344238551764,10.863577616872863,-3.556609910142971
6.805326513,-0.2918533305598292,11.551637625772251,-4.681277697633859
6.810081044,0.09905324053844561,12.284619950824414,-5.69406562286926
6.814835523,0.5435177429938639,13.037459080785435,-6.560666284660214
6.819590002,1.0320927298175822,13.785074293701909,-7.252706693665088
6.824344482,1.5536818113248982,14.503430516971898,-7.748966523972515
6.829099013,2.09590674564046,15.17040672423243,-8.036262810413326
6.833853492,2.645497037103245,15.76644018815627,-8.109948921734512
6.838607971,3.188689064841272,16.274930528315142,-7.973996149259595
6.84336245,3.7116226366974967,16.6824038022344,-7.640650660231088
6.848116929,4.200723916233706,16.978452835294135,-7.129684434926207
6.852871461,4.643064896487744,17.155484546611987,-6.467283455963291
6.85762594,5.026690978832918,17.20831727634978,-5.684637641110905
6.862380419,5.340909738243236,17.133680206455896,-4.816313292786193
6.867134898,5.57653561411304,16.929672129928434,-3.8984993246612656
6.871889377,5.726087058759145,16.59523750979924,-2.967222977168437
6.876643909,5.78393456480851,16.12971381309221,-2.056629429072158
6.881398388,5.746399879287414,15.53249583014474,-1.1974132835895182
6.886152867,5.611808456903093,14.802850856745161,-0.4154791466655097
6.890907346,5.380498657037614,13.939904279073211,0.2691057638680658
6.895661877,5.05479221147798,12.942799456817818,0.8428210356423841
6.900416357,4.63893098315525,11.811020073695925,1.299037435974061
6.905170836,4.13898495577008,10.544848480501303,1.6379889805668857
6.909925315,3.562735762288217,9.145921019989837,1.8663851416891328
6.914679846,2.9195389728109666,7.61783172880959,1.9966942074144371
6.919434325,2.2201669839787526,5.966729775034426,2.0461452693368027
6.924188804,1.4766328934018236,4.201853906300316,2.035509848129713
6.928943284,0.7019944362266677,2.335949223989702,1.987734088687116
6.933697763,-0.08986384961928126,0.3855176935141994,1.9264983026873674
6.938452294,-0.8844723398798688,-1.6291363686402756,1.8747822072525824
6.943206773,-1.6670434891945178,-3.684091569015673,1.8535115914074445
6.947961252,-2.4227645753449196,-5.752235728466363,1.8803556629980742
6.952715732,-3.137113900834396,-7.803926383508834,1.9687344610955029
6.957470263,-3.7961954905502875,-9.807861060144816,2.127083027026666
6.962224742,-4.387084249590782,-11.732115860132039,2.358404207474926
6.966979221,-4.89817066445964,-13.5452958997682,2.6601259218236524
6.9717337,-5.3194918384150505,-15.217729827289428,3.0242625060974957
6.976488179,-5.643034186869886,-16.72263463238954,3.4378642555153953
6.981242711,-5.862992576043839,-18.037177231323806,3.883725108299709
6.98599719,-5.9759711563779625,-19.143365796516616,4.341305939703503
6.990751669,-5.981112773921495,-20.02871552193793,4.787820651848232
6.995506148,-5.88014675849003,-20.68664906116858,5.199424798187768
7.000260679,-5.677349031647939,-21.11660974072288,5.552442566672589
7.005015159,-5.379413558389253,-21.323884330339645,5.824568171265644
7.009769638,-4.995239680163899,-21.319150188036463,5.995982292756234
7.014524117,-4.535645153560059,-21.117777745944608,6.050332538547886
7.019278648,-4.013019066494892,-20.738932678975168,5.975537418794456
7.024033127,-3.44093164733197,-20.20453217558156,5.764384352204732
7.028787607,-2.8337190928384857,-19.538116237043447,5.414902692974589
7.033542086,-2.2060610465904302,-18.76369777588587,4.930502502984375
7.038296617,-1.5725666246135286,-17.90465452708938,4.319878931747546
7.043051096,-0.9473823718363273,-16.982721633400367,3.596690720096604
7.047805575,-0.34383269326261284,-16.01713655499849,2.779029490840137
7.052560054,0.2258994985351881,-15.023978145380557,1.888704038526344
7.057314586,0.7510466997254425,-14.015729905021535,0.9503706661967508
7.062069065,1.2224821814577893,-13.001084227323194,-0.00945339294959011
7.066823544,1.6328953207053958,-11.984990573256686,-0.9634514492107599
7.071578023,1.9769165381251619,-10.968936634009728,-1.884597930473549
7.076332554,2.2511921122741474,-9.951438337179482,-2.7472299247789254
7.081087034,2.454409305611384,-8.928702688213194,-3.528050926716461
7.085841513,2.5872720572093506,-7.895417563898635,-4.207019427005816
7.090595992,2.6524271824291206,-6.845615291219543,-4.7680788714826186
7.095350523,2.6543408710822765,-5.773552675222759,-5.199692425719696
7.100105002,2.5991256033102825,-4.674549468622264,-5.495156351350883
7.104859482,2.49431858494736,-3.545730246659693,-5.65267956686411
7.109613961,2.3486143889575093,-2.3866210689355243,-5.6752331380760035
7.114368492,2.1715564529748543,-1.199561660969898,-5.5701899808735895
7.119122971,1.9731941880997323,0.010094562785036827,-5.348789338664424
7.12387745,1.7637145513265284,1.2340072135984657,-5.025470349560156
7.128631929,1.5530589624166857,2.4611030625757224,-4.617123158187884
7.133386461,1.3505383800133417,3.678044313851174,-4.142304855840459
7.13814094,1.1644611098527675,4.869884496610451,-3.6204623186543348
7.142895419,1.001789275223583,6.020873745420178,-3.0711963530363313
7.147649898,0.8678404831932762,7.115365786803197,-2.5135928771457614
7.152404429,0.7660507366348116,8.13877229713541,-1.965638219614299
7.157158909,0.6978129266834966,9.07850673798633,-1.4437277490180596
7.161913388,0.6624023870215809,9.924859385956903,-0.9622705514462302
7.166667867,0.6569972637752031,10.671747974331124,-0.5333882071649503
7.171422346,0.6767971869629533,11.31729395741066,-0.16670306660537265
7.176176877,0.7152392488457457,11.864182588734973,0.13078946002846914
7.180931357,0.7643058534895995,12.319775351504592,0.35476989275898196
7.185685836,0.8149147333871616,12.695955281583867,0.5035698352981921
7.190440315,0.8573773777695147,13.008698825631736,0.57807820518514
7.195194846,0.8819083348926606,13.277381524822317,0.5815841529131687
7.199949325,0.87916447037096,13.523838465372062,0.5195635196366438
7.204703804,0.8407905006462199,13.771213550050424,0.3994171611893885
7.209458336,0.7599452224965478,14.042643679781909,0.23017086744150206
7.214212815,0.6317820504209023,14.359834364669917,0.022147643549691263
7.218967294,0.45385790915144014,14.741591615755462,-0.21337644403665487
7.223721773,0.2264462674068026,15.202380762233727,-0.4645219662799346
7.228476304,-0.04726689121020177,15.75098572781641,-0.7191515458014165
7.233230784,-0.3611211730470689,16.389342016941775,-0.9652028021127017
7.237985263,-0.7060657094874709,17.111613061217007,-1.1910025987161985
7.242739742,-1.0703944876335563,17.90357265238685,-1.3855583520530286
7.247494273,-1.4401316996563267,18.742346076498425,-1.5388239620613071
7.252248752,-1.799558274716722,19.596549535626394,-1.641939359306371
7.257003232,-2.1318630772528864,20.426851893099375,-1.687443596390961
7.261757711,-2.419894699041809,21.186965216099622,-1.6694617677767143
7.266512242,-2.64698272410864,21.825051633207938,-1.5838658455866252
7.271266721,-2.797791235618759,22.28551438203095,-1.428408889454311
7.2760212,-2.859162652406719,22.511121369573534,-1.2028312035506326
7.280775679,-2.8209072601448133,22.445390924698998,-0.9089360524537483
7.285530211,-2.676493519247031,22.035152526186785,-0.5506316443004481
7.29028469,-2.4235966880997397,21.23318098051768,-0.13393531780913392
7.295039169,-2.0644685272438084,20.00079162773166,0.33306474173074135
7.299793648,-1.6060986196910727,18.310277466613254,0.8402953530144911
7.304548179,-1.060147739912545,16.14706732940485,1.3758370063669116
7.309302659,-0.4426451995762207,13.511487971857425,1.926120366113752
7.314057138,0.22654540964323772,10.420022530491233,2.476184868795244
7.318811617,0.9244748187456832,6.905973319748376,3.0100022888489715
7.323566148,1.6260412753461442,3.019458179287724,3.510866061726448
7.328320627,2.305067111278977,-1.173304003165858,3.96184438142525
7.333075107,2.935467702105315,-5.591432241092909,4.346291689208537
7.337829638,3.492454377983213,-10.141526656128113,4.64840927132375
7.342584117,3.95370822170193,-14.72046018031127,4.853841478773723
7.347338596,4.300460344951133,-19.21872743882061,4.950289822121763
7.352093075,4.518416513119188,-23.524225830709636,4.9281231686605915
7.356847607,4.598470136808243,-27.526314129508325,4.78095878161417
7.361602086,4.537157799604604,-31.119970446471854,4.506186265284972
7.366356565,4.336825551789966,-34.209856387951675,4.105404765198394
