Time (s),Acceleration x (m/s^2),Acceleration y (m/s^2),Acceleration z (m/s^2)
6.003074674,-0.35838987800792865,0.8534297554305704,-0.07500510335265606
6.007864102,-0.4176718870073423,0.7154940502961832,0.048371087509503946
6.012640195,-0.4779899357155738,0.5844278642657877,0.1644905432484854
6.017416289,-0.5396694028784671,0.46106094348365884,0.27180748694538986
6.022192435,-0.6030261215590614,0.34609245071107625,0.3688864258055054
6.026968529,-0.668358538031302,0.2400784588770027,0.4544236262242787
6.031744622,-0.7359398777633064,0.1434211530232333,0.5272670640901554
6.036520768,-0.8060104351803208,0.05635995454197516,0.5864345385893137
6.041296862,-0.8787701019310847,-0.0210352392885108,0.6311296542778893
6.046059674,-0.954371244841582,-0.08886853245114168,0.6607553972584339
6.050849102,-1.032912040235958,-0.14742008445107835,0.6749250574334116
6.055625195,-1.1144303663461084,-0.1971456333522519,0.6734702802931162
6.060388008,-1.198898350442798,-0.2386734126779587,0.6564460685184296
6.065177435,-1.2862176622243642,-0.2727984224327779,0.624132595558986
6.069953529,-1.376215639787414,-0.3004740510561598,0.5770337397561685
6.074716341,-1.468642328837822,-0.32280108275455655,0.5158722977296313
6.079505768,-1.5631685091753884,-0.34101416309876165,0.4415818886059739
6.084281862,-1.6593847743642225,-0.35646583470723847,0.3552956150796677
6.089044674,-1.7568017204572761,-0.370608293853949,0.25833160211830886
6.093834102,-1.8548512874596008,-0.3849730573694533,0.152175588299689
6.098610195,-1.9528892829212814,-0.4011487665216379,0.03846079729905474
6.103386341,-2.050199100927175,-0.42075738986657396,-0.08105463302958635
6.108162435,-2.145996632259763,-0.4454291195803078,-0.2045123401200522
6.112938581,-2.239436343170865,-0.47677628484913004,-0.3299801787885791
6.117714674,-2.3296184815006122,-0.5163666309479745,-0.45548001312152825
6.122490768,-2.4155973503449153,-0.5656963332003709,-0.579016424325906
6.127266914,-2.4963905717102093,-0.6261631306872473,-0.6986058764127455
6.132029727,-2.5709892462912376,-0.6990399750077185,-0.8123058648030604
6.136819102,-2.6383689013466736,-0.7854495942812216,-0.9182435646348303
6.141595247,-2.697501107305689,-0.8863403716713926,-1.0146434968175182
6.14635806,-2.7473656358559464,-1.0024639308885928,-1.099853741809576
6.151147435,-2.786963028171139,-1.134354808402253,-1.1723702543085543
6.155923581,-2.8153274412574825,-1.2823125735582748,-1.2308588663377933
6.160686393,-2.8315396419647954,-1.4463867336095866,-1.274174610522402
6.16547582,-2.8347400204649715,-1.6263647310980658,-1.3013780480163641
6.170251914,-2.824141496525387,-1.8217633064653933,-1.3117483447154883
6.175014727,-2.7990421916224735,-2.031823459696633,-1.3047929033752703
6.179804154,-2.758837737102797,-2.2555092017225618,-1.2802534267227916
6.184580247,-2.7030330828181466,-2.49151023969024,-1.2381083565024567
6.189356341,-2.631253662115965,-2.738248690396046,-1.1785717042444124
6.194132487,-2.5432557587222306,-2.993889863363279,-1.1020883592875592
6.198908581,-2.43893591064763,-3.2563570993742603,-1.0093260256223477
6.203684727,-2.3183391779378453,-3.52335059190471,-0.9011639992656794
6.20846082,-2.181666096937522,-3.792370058141443,-0.7786790511169817
6.213236914,-2.029278145290103,-4.060741063544977,-0.6431287263486241
6.217999727,-1.8617015500107976,-4.32564473986323,-0.4959324097809679
6.222789154,-1.6796292858730915,-4.584150571894156,-0.33865053564933423
6.227565247,-1.4839211326864903,-4.8332518642443825,-0.17296233722795634
6.23232806,-1.2756016867621383,-5.069903437576577,-0.0006425352377051954
6.237117487,-1.0558562521867312,-5.291061046834191,0.17646264577585175
6.241893633,-0.826024569452715,-5.493721964451054,0.35645976434062693
6.246656393,-0.5875923711365749,-5.674966132089432,0.5374324111078607
6.25144582,-0.3421807863114003,-5.831997256896768,0.7174651103874233
6.256221966,-0.09153364750234586,-5.962183213939988,0.8946665969770135
6.260984727,0.162497213545748,-6.0630951161807305,1.0671922223335386
6.265774154,0.4179685624819006,-6.132544427366729,1.233265272500591
6.270550299,0.6728641005911269,-6.168617521108576,1.3911970048310387
6.275313112,0.9251143633794376,-6.16970712993205,1.5394052314372766
6.280102539,1.1726179698706305,-6.134540179179513,1.676431295199798
6.284878633,1.4132639874222328,-6.062201559625073,1.8009553001205199
6.289654727,1.644955154423312,-5.9521534567039645,1.9118094727748445
6.294430872,1.8656316839684977,-5.804249920742158,2.0079895462852457
6.299206966,2.0732953553464584,-5.618746429640416,2.088664073120692
6.303969779,2.266033586673018,-5.396304262244771,2.1531815886742387
6.308759206,2.442043171082517,-5.137989567213121,2.2010755648057057
6.313535299,2.599653350696506,-4.8452670793289725,2.232067112422828
6.318298112,2.7373478975592813,-4.519988503875311,2.246065415574372
6.323087539,2.853785869522448,-4.164375660467845,2.243165906489996
6.327863633,2.947820712413688,-3.780998550564641,2.223646220517348
6.332626445,3.018517388447752,-3.3727485869747946,2.1879600002472324
6.337415872,3.0651672253908258,-2.94280729791925,2.136728647472911
6.342191966,3.08730020212202,-2.4946108910649807,2.070731148671896
6.346954779,3.08469441454056,-2.0318111326260664,1.9908921238162711
6.351744206,3.057382501614726,-1.5582330610277593,1.8982682695170203
6.356520352,3.0056548547404147,-1.0778301117042548,1.7940333861640239
6.361283112,2.930059484019184,-0.5946372774947037,1.6794621953464366
6.366072539,2.8313984717668967,-0.11272296616439732,1.5559131688343166
6.370848685,2.710721005434608,0.3638597587250693,1.4248106037723185
6.375611445,2.5693130476802994,0.8311218563602482,1.287626189926456
6.380400872,2.4086837683994515,1.2851862127488578,1.145860322955661
6.385177018,2.2305489290413636,1.7223340937472265,1.0010234218623129
6.389939831,2.0368114697469477,2.1390495002851266,0.8546175081503308
6.394729206,1.8295396009331273,2.532060819285519,0.7081182979042241
6.399505352,1.610942740035585,2.89837921220995,0.562958045276789
6.404268164,1.383345660219013,3.2353332376278106,0.4205093565549725
6.409057591,1.1491612323168432,3.5405992630451406,0.2820701687839055
6.413833685,0.9108621471834071,3.8122272835095212,0.1488500576022437
6.418596497,0.6709520064217649,4.048661829842521,0.02195800789880957
6.423385924,0.43193616714818445,4.248757717328244,-0.09760824944029459
6.428162018,0.1962927211506593,4.411790455473775,-0.2089712593873639
6.432924831,-0.033556020658243604,4.537461209911319,-0.311381172962092
6.437714258,-0.25527118217623973,4.625896277623295,-0.4042213579486595
6.442490352,-0.46662377772572494,4.677641105897133,-0.48701228282377396
6.447253164,-0.6655196562964203,4.693648953620336,-0.5594136854266789
6.452042591,-0.8500226479730204,4.675264360655597,-0.6212250551725618
6.456818685,-1.0183756549530394,4.62420165684607,-0.6723844733499827
6.461581497,-1.1690194602820687,4.542518806187341,-0.7129658704218711
6.466370924,-1.300609059761825,4.432586943156103,-0.7431747724913309
6.47114707,-1.4120273561180319,4.297056016257133,-0.7633426213437491
6.475923164,-1.5023960890986214,4.138817007587395,-0.773919763763024
6.480699258,-1.5710839103233902,3.960961245581623,-0.7754672161171396
6.485475404,-1.6177115470084376,3.766737370001286,-0.7686473195194683
6.490251497,-1.6421540336868554,3.559506542568089,-0.7542134092160709
6.495027643,-1.6445400252543043,3.3426965224468477,-0.7329986291487788
6.499803737,-1.6252482375892772,3.119755242295123,-0.7059040286146228
6.504566549,-1.5849010931349814,2.8941045273506045,-0.6738860821035739
6.509355977,-1.5243556776891618,2.669094596856318,-0.6379437752216668
6.51413207,-1.4446921408056603,2.44795997414335,-0.5991053986967224
6.518894883,-1.3471996954087864,2.2337774092502083,-0.5584151886271915
6.52368431,-1.2333603924141936,2.029426386575431,-0.5169199443647801
6.528460404,-1.1048308634957136,1.8375527503498301,-0.47565574585271597
6.533223216,-0.9634222399447558,1.6605359333348186,-0.4356348801376693
6.538012643,-0.8110784681990797,1.5004602197957047,-0.39783307255610095
6.542788737,-0.6498532533854261,1.3590904132106978,-0.36317710238712125
6.547551549,-0.4818858713633933,1.2378522131786907,-0.33253286647947333
6.552340977,-0.30937609743281125,1.1378175354630011,-0.3066939390826463
6.55711707,-0.13455850601923908,1.0596949349220626,-0.2863706649302853
6.561879883,0.04032360019580823,1.003825213992075,-0.2721798207254369
6.56666931,0.21304437191388248,0.9701822201123608,-0.2646348935443102
6.571445456,0.38142144796402455,0.9583787550188101,-0.26413705646495317
6.576221549,0.54334159072855,0.9676774388734469,-0.2709669688382557
6.580997643,0.6967856767476497,0.9970062952454235,-0.28527758165770495
6.585773789,0.8398528036105137,1.0449787519059432,-0.3070881753727529
6.590536602,0.9707832788314045,1.1099176898737353,-0.33627988792839025
6.595326029,1.0879802581593996,1.1898831209207004,-0.3725929989483616
6.600102122,1.1900298000198863,1.282703032423034,-0.4156262207408362
6.604864935,1.275719101063361,1.386006907500397,-0.4648382107684548
6.609654362,1.3440526774055845,1.4972614066199237,-0.5195514680099375
6.614430456,1.3942662591523745,1.6138076830714927,-0.5789587125159475
6.619193268,1.4258381730738945,1.7328997983684795,-0.64213177837546
6.623982695,1.4384979995318774,1.8517437047596423,-0.7080329793339959
6.628758841,1.4322323046066257,1.9675362708430426,-0.7755288366207774
6.633521602,1.4072872673512318,2.077503842510046,-0.8434059929155627
6.638311029,1.3641680466018642,2.1789398543473664,-0.9103890775503488
6.643087122,1.3036347633159708,2.269241035184867,-0.9751602384443814
6.647849935,1.226695014003465,2.3459417847426463,-1.0363800174694269
6.652639362,1.1345928785868051,2.4067463355020906,-1.0927092181455642
6.657415508,1.0287944410379768,2.449558354345585,-1.1428313965129262
6.66217832,0.9109699014834851,2.4725076816030973,-1.1854755953014962
6.666967747,0.7829724217122261,2.4739739503346216,-1.2194389354527113
6.671743841,0.6468139097766792,2.4526068753149364,-1.2436086758038958
6.676519935,0.5046380115908082,2.40734304846728,-1.2569833510250292
6.681296081,0.3586906363372665,2.337419124395515,-1.258692600757281
6.686072174,0.21128839650290554,2.2423813250194025,-1.2480153110045293
6.690834987,0.06478539104045594,2.122091235040709,-1.2243957037120898
6.695624414,-0.07846119961736199,1.976727899332454,-1.1874570332768117
6.700400508,-0.21612620597837806,1.8067862690878513,-1.1370125801863176
6.70516332,-0.3459517254691375,1.6130720757990935,-1.0730736722132415
6.709952747,-0.46578200420433247,1.396693241181908,-0.9958545119246235
6.714728841,-0.5735974024046443,1.1590479574449553,-0.905773644255502
6.719491654,-0.6675469063655728,0.9018095962843439,-0.803451957633167
6.724281081,-0.7459786640035634,0.6269086271146148,-0.6897071747721161
6.729057227,-0.8074680438051982,0.3365117457621085,-0.5655448534290756
6.733820039,-0.8508427479833363,0.032998434557167174,-0.43214598238842816
6.738609414,-0.8752045489475498,-0.2810648061840095,-0.29085132347334364
6.74338556,-0.8799472626003992,-0.6029522966841226,-0.1431427162280925
6.748161654,-0.8647706212503514,-0.9298088094537877,0.009378372585048358
6.752937747,-0.8296897622171473,-1.2586807000143407,0.16501470886994934
6.757713893,-0.775040105103798,-1.5865482261323536,0.321999155049534
6.762476706,-0.7014774512807157,-1.9103587307831265,0.47852207945803865
6.767266133,-0.6099732036997288,-2.2270603521268186,0.6327598089112496
6.772042227,-0.50180467393263,-2.53363591450301,0.7829035895475586
6.776805039,-0.3785405159942075,-2.8271366479259483,0.9271885018541426
6.781594466,-0.24202140214153958,-3.104715379816595,1.0639217713321885
6.78637056,-0.09433613318129534,-3.36365884176329,1.1915099268379048
6.791133372,0.06220654639570809,-3.601418736037543,1.3084842834068584
6.795922799,0.2251100810793624,-3.8156412115434364,1.4135242636018552
6.800698945,0.39172576239979223,-4.004194407028633,1.5054781191534778
6.805461706,0.5592914185508627,-4.165193730955725,1.583380671204486
6.810251133,0.72497257574504,-4.297024562701658,1.6464677514791424
6.815027279,0.8859054726863916,-4.3983620790187485,1.6941870968251411
6.819790091,1.0392412595620901,-4.468187933237313,1.7262055241742327
6.824579518,1.1821906731178464,-4.505803542809385,1.7424122901499162
6.829355612,1.3120684509413025,-4.510839773780364,1.7429186173442013
6.834118424,1.4263367321795795,-4.483262848771684,1.7280534455879277
6.838907852,1.522646689708246,-4.423376347839136,1.6983555389650444
6.843683945,1.5988776517321845,-4.331819218524246,1.654562145272002
6.848446758,1.6531730010002037,-4.209559761737251,1.5975944617606401
6.853236185,1.6839721894264725,-4.057885612999167,1.5285402079746844
6.858012279,1.6900382760320836,-3.8783897931951006,1.448633643463176
6.862775091,1.6704804856214526,-3.672952958321144,1.3592333967874068
6.867564518,1.6247713906470451,-3.44372203247331,1.2617984951061092
6.872340664,1.5527584331464142,-3.193085461167394,1.157863003305645
6.877103477,1.4546696203441019,-2.923645371712499,1.049009699750563
6.881892904,1.3311133402592725,-2.638186972660275,0.9368432322804994
6.886668997,1.1830723484337424,-2.3396455643489027,0.8229632114863716
6.89143181,1.0118920720166684,-2.031071566501327,0.7089377059709057
6.896221237,0.8192634628117347,-1.7155939963182645,0.5962776035610263
6.900997331,0.6072007072291101,-1.396382851597241,0.48641229135310865
6.905760143,0.3780141695145816,-1.0766108686400675,0.3806670852094301
6.91054957,0.1342790063893725,-0.7594151348931556,0.28024280613730446
6.915325664,-0.1212000527603192,-0.4478590421510943,0.18619785793230315
6.920088477,-0.38542721555513626,-0.14489506808110256,0.09943310904000456
6.924877904,-0.6552568371558006,0.14667112842932392,0.020679823437539296
6.929654049,-0.9274367051068014,0.4242148196863376,-0.04950917773793948
6.93441681,-1.1986527421966056,0.6853240637163724,-0.1107650080985647
6.939206237,-1.4655744501600358,0.9278288545763927,-0.16290481264550902
6.943982383,-1.7249004061310285,1.1498271487309901,-0.20593048622037022
6.948745195,-1.9734031238559848,1.349707382090682,-0.24002409409607492
6.95353457,-2.2079726037434964,1.5261671342462633,-0.26554013440888546
6.958310716,-2.4256579205094266,1.6782276454730938,-0.28299483674262244
6.963073529,-2.6237062345866016,1.8052439473655415,-0.2930527403331424
6.967862956,-2.7995986630775374,1.9069104284874263,-0.2965108385293609
6.972639049,-2.9510825067602653,1.9832617211515842,-0.2942806129807097
6.977401862,-3.0761993999808688,2.0346688633808867,-0.2873683113476469
6.982191289,-3.1733090282641374,2.0618307603292014,-0.27685384606456553
6.986967383,-3.2411081419276906,2.0657610410496106,-0.2638687087518981
6.991730195,-3.2786446804687426,2.0477704785157393,-0.24957330519238718
6.996519622,-3.2853269095194166,2.009445212091507,-0.23513411924368122
7.001295768,-3.260927557440176,1.9526210808530926,-0.22170111053421301
7.006071862,-3.2055830202800255,1.8793544417599701,-0.21038574022902165
7.010847956,-3.119787780538697,1.7918899070181729,-0.20224000168511844
7.015624102,-3.004384256021225,1.6926254884607244,-0.1982368088342608
7.020386914,-2.860548359428206,1.5840756818961597,-0.19925206530036613
7.025176341,-2.689771106554365,1.4688330598531,-0.20604870245340187
7.029952435,-2.4938366603069757,1.3495289658777812,-0.21926293577094372
7.034715247,-2.2747972382427015,1.2287939166089419,-0.23939294687371385
7.039504674,-2.0349453419765626,1.1092183186554478,-0.2667901540619262
7.044280768,-1.7767837869973573,0.9933140957701353,-0.30165318760729504
7.049043581,-1.5029940210636143,0.8834777985423121,-0.34402463805029876
7.053833008,-1.2164032188142255,0.7819557349442607,-0.3937905971805567
7.058609154,-0.9199506298901996,0.6908116169355044,-0.45068296329417606
7.063371914,-0.6166536379138282,0.611897167354288,-0.5142844357385857
7.068161341,-0.3095739583854583,0.5468260739291555,-0.5840360795220563
7.072937487,-0.0017843659202074786,0.4969516150176592,-0.6592472995922934
7.077700299,0.30366370268406745,0.46334821648305663,-0.7391080268604084
7.082489727,0.6037713704154838,0.4467971329390793,-0.8227028845652941
7.08726582,0.8956221156861057,0.4477763812543098,-0.9090270742737531
7.092041914,1.176409935742751,0.4664549911454816,-0.9970036954863178
7.09681806,1.4434657128685942,0.5026915778474459,-1.0855021910139577
7.101594154,1.6942816529439393,0.5560371856994518,-1.173357591694418
7.106370299,1.9265336930442245,0.6257422991451848,-1.2593902188885313
7.111146393,2.1381017944853746,0.7107678690487689,-1.3424254924377024
7.115922539,2.3270880512871095,0.8098001573442585,-1.4213134865405486
7.120698633,2.4918325532009673,0.921269161932416,-1.494947877234906
7.125474727,2.6309269489761795,1.0433703465567459,-1.5622839332517395
7.130250872,2.743225660768444,1.1740893672979986,-1.622355216944155
7.135013685,2.827854705404916,1.3112294585004136,-1.6742886836569184
7.139803112,2.8842180830420716,1.4524411165068725,-1.7173178961342268
7.144579206,2.912001698874693,1.5952536995124997,-1.7507941051196458
7.149342018,2.911174789442099,1.7371085460041533,-1.7741949877651546
7.154131445,2.8819888324932506,1.8753932024976745,-1.7871308812685902
7.158907539,2.824973929201914,2.0074763435291496,-1.7893483996859754
7.163670352,2.740932660529293,2.130742962983009,-1.7807313765394763
7.168459779,2.630931436185541,2.2426294156576003,-1.7612991340692281
7.173235924,2.4962893750518713,2.340657891339982,-1.7312021409353844
7.177998685,2.338564779794523,2.4224699106639096,-1.690715182568468
7.182788112,2.159539294996674,2.485858442951424,-1.6402282303268014
7.187564258,1.9611998663508667,2.528798261430874,-1.5802352548368186
7.192340352,1.745718647022323,2.5494741708954125,-1.5113212828484426
7.197116497,1.5154310250010483,2.5463067670284305,-1.4341480431893876
7.201892591,1.2728119710916284,2.517975415122751,-1.3494385838467902
7.206655404,1.020450930359719,2.4634381685020816,-1.2579612672777007
7.211444831,0.7610254997720626,2.381948383263041,-1.1605135637868023
7.216220924,0.49727415102411443,2.2730678254950853,-1.0579060627978032
7.220983737,0.23196827007660112,2.136676109245365,-0.9509471091522174
7.225773164,-0.032116205845526706,1.9729763474324586,-0.8404284466918294
7.23054931,-0.29222726636599694,1.7824969429345343,-0.7271122152236771
7.23531207,-0.5456651291351443,1.566089492478733,-0.6117196008437693
7.240101497,-0.7898100694719246,1.3249228211389026,-0.49492138519305595
7.244877643,-1.0221494837236174,1.0604732098437268,-0.37733057848429846
7.249640456,-1.2403038941811484,0.7745109222234003,-0.25949725617312946
7.254429883,-1.4420516088921327,0.4690831804209329,-0.14190565209213638
7.259205977,-1.625351758315979,0.1464937820878008,-0.024973493703353344
7.263968789,-1.7883654427895903,-0.19072040764458392,0.09094650051879037
7.268758216,-1.929474740749067,-0.5398158154138301,0.2055631043455934
7.27353431,-2.047299348200258,-0.8978710585537448,0.3186412490203641
7.278297122,-2.1407106454856755,-1.2618180375968502,0.42999512433377773
7.283086549,-2.208843018051043,-1.6284748459956695,0.5394800133832806
7.287862695,-2.251102293552219,-1.9945800961072273,0.6469831904503862
7.292625508,-2.2671711980146694,-2.356828242949312,0.7524142264717149
7.297414935,-2.257011778019422,-2.7119054777976648,0.8556950429920226
7.302191029,-2.220864781904425,-3.0565257623961983,0.9567500360751874
7.306953841,-2.159246037473525,-3.387466580125116,1.0554965636661426
7.311743268,-2.0729399036541127,-3.7016039907417806,1.1518360610309433
7.316519362,-1.962989907484421,-3.995946588263919,1.2456460233097304
7.321282174,-1.8306867059970768,-4.267667976272831,1.3367730716897648
7.326071602,-1.6775535359760858,-4.514137391641447,1.425027297475028
7.330847747,-1.505329333936637,-4.73294812740731,1.5101780533150098
7.33561056,-1.3159497242377378,-4.921943429401956,1.5919513309782127
7.340399935,-1.1115260849479944,-5.079239570452557,1.6700288295295846
7.345176081,-0.894322908991876,-5.203245841354932,1.7440487768910307
7.349938893,-0.6667336826158287,-5.292681239719534,1.8136085225939604
7.35472832,-0.43125550523185546,-5.346587685767918,1.8782688716057672
