"Time (s)","Acceleration x (m/s^2)","Acceleration y (m/s^2)","Acceleration z (m/s^2)"
0.000000000E0,-2.391626120E0,2.584248543E0,8.837292671E0
4.298979000E-3,-2.488535643E0,2.478366137E0,8.501698494E0
9.075073000E-3,-2.560918331E0,2.362912416E0,8.267202377E0
1.385116600E-2,-2.580060959E0,2.257030010E0,8.147561073E0
1.862731200E-2,-2.580060959E0,2.179861546E0,8.166703224E0
2.340340600E-2,-2.512463808E0,2.155933142E0,8.281558990E0
2.817950000E-2,-2.325225353E0,2.156531334E0,8.520243645E0
3.295559400E-2,-2.109871387E0,2.219342947E0,8.773882866E0
3.773168700E-2,-1.904686809E0,2.316252232E0,8.897710800E0
4.250778100E-2,-1.719243050E0,2.398206472E0,8.939585686E0
4.728387500E-2,-1.562513232E0,2.480758905E0,8.972486496E0
5.205996900E-2,-1.424327731E0,2.553141832E0,9.058030128E0
5.683606200E-2,-1.309472203E0,2.601596355E0,9.224929810E0
6.161215600E-2,-1.207777262E0,2.644667149E0,9.397212982E0
6.638825000E-2,-1.093519926E0,2.650051117E0,9.501898766E0
7.116434400E-2,-9.930213690E-1,2.650051117E0,9.607182503E0
7.594043700E-2,-9.595218897E-1,2.654836655E0,9.659825325E0
8.071653100E-2,-9.397810698E-1,2.635694027E0,9.707681656E0
8.549262500E-2,-9.631111026E-1,2.592623234E0,9.784850121E0
9.026871900E-2,-9.912267923E-1,2.553740025E0,9.847661972E0
9.504481200E-2,-9.954141974E-1,2.525026083E0,9.909874916E0
9.982090600E-2,-9.804590940E-1,2.481357098E0,9.967302322E0
1.045970000E-1,-9.990034699E-1,2.433500528E0,1.000618649E1
1.093730940E-1,-1.065404296E0,2.375474691E0,1.002532864E1
1.141491870E-1,-1.118046403E0,2.312663078E0,9.973284721E0
1.189252810E-1,-1.113260746E0,2.230708838E0,9.862616539E0
1.237013750E-1,-1.061815023E0,2.144567251E0,9.747760773E0
1.284774690E-1,-1.028913736E0,2.053041935E0,9.579067230E0
1.332535620E-1,-1.049252748E0,1.965703845E0,9.372686386E0
1.380296560E-1,-1.079162955E0,1.951346874E0,9.147761345E0
1.428057500E-1,-1.155733347E0,1.922633052E0,9.004191399E0
1.475818960E-1,-1.294517040E0,1.893320918E0,8.904291153E0
1.523579370E-1,-1.403988719E0,1.830509305E0,8.871390343E0
1.571340830E-1,-1.484746456E0,1.786840320E0,8.915059090E0
1.619101250E-1,-1.584048629E0,1.743171334E0,8.982656479E0
1.666862710E-1,-1.668993831E0,1.743171334E0,9.078967094E0
1.714623640E-1,-1.730010748E0,1.791027784E0,9.194420815E0
1.762384580E-1,-1.762912035E0,1.843669891E0,9.328418732E0
1.810145520E-1,-1.757528186E0,1.891526341E0,9.482157707E0
1.857906460E-1,-1.751546144E0,1.911267042E0,9.611370087E0
1.905667390E-1,-1.774876237E0,1.886740685E0,9.702896118E0
1.953428330E-1,-1.769492388E0,1.872383714E0,9.775279045E0
2.001189270E-1,-1.731207132E0,1.853241086E0,9.808777809E0
2.048950210E-1,-1.697707653E0,1.834098577E0,9.842277527E0
2.096711140E-1,-1.659422517E0,1.785643935E0,9.870991707E0
2.144472080E-1,-1.569093466E0,1.805384636E0,9.923035622E0
2.192233020E-1,-1.426720500E0,1.974078655E0,9.917651176E0
2.239993960E-1,-1.379462242E0,1.945364833E0,9.912267685E0
2.287754890E-1,-1.350748420E0,1.868794441E0,9.840482712E0
2.335515830E-1,-1.356132269E0,1.767697692E0,9.739984512E0
2.383276770E-1,-1.313659668E0,1.680957913E0,9.619147301E0
2.431037710E-1,-1.213759303E0,1.661815286E0,9.513264656E0
2.478798640E-1,-1.095314622E0,1.705484390E0,9.421140671E0
2.526559580E-1,-1.039083242E0,1.758724689E0,9.367900848E0
2.574320520E-1,-1.020538807E0,1.797608018E0,9.329615593E0
2.622081460E-1,-1.030110121E0,1.835893154E0,9.296115875E0
2.669842390E-1,-1.034895778E0,1.869392633E0,9.296115875E0
2.717603330E-1,-1.001396298E0,1.874178290E0,9.363115311E0
2.765364270E-1,-9.672985673E-1,1.883749604E0,9.497113228E0
2.813125730E-1,-9.613165259E-1,1.898704767E0,9.660423279E0
2.860886660E-1,-9.559326172E-1,1.908276081E0,9.766305923E0
2.908647600E-1,-9.846464992E-1,1.941775560E0,9.766305923E0
2.956408540E-1,-9.996016622E-1,1.951346874E0,9.708279610E0
3.004169480E-1,-1.057029366E0,1.960918188E0,9.670592308E0
3.051930410E-1,-1.089930773E0,1.941177368E0,9.684949875E0
3.099691350E-1,-1.113260746E0,1.950748682E0,9.718449593E0
3.147452290E-1,-1.146760225E0,1.945963025E0,9.708877563E0
3.195213230E-1,-1.170688510E0,1.969891191E0,9.714262009E0
3.242974160E-1,-1.175474167E0,2.018944025E0,9.762716293E0
3.290735100E-1,-1.170090318E0,2.042872429E0,9.801001549E0
3.338496040E-1,-1.113260746E0,2.081755638E0,9.848857880E0
3.386256980E-1,-9.708877802E-1,1.773081541E0,9.631709099E0
3.434017910E-1,-1.033101201E0,1.816152334E0,9.612566948E0
3.481778850E-1,-1.159920812E0,1.994417667E0,9.930213928E0
3.529539790E-1,-1.087537885E0,2.254637241E0,1.026580715E1
3.577300730E-1,-9.684949517E-1,2.457428932E0,1.037527943E1
3.625061660E-1,-8.787640929E-1,2.515454769E0,1.032203865E1
3.672822600E-1,-8.177471161E-1,2.447857618E0,1.014437199E1
3.720583540E-1,-6.945167780E-1,2.309073925E0,9.951749802E0
3.768345000E-1,-5.712863803E-1,2.212762833E0,9.841081619E0
3.816105940E-1,-4.815555513E-1,2.193620205E0,9.787840843E0
3.863866870E-1,-4.767699242E-1,2.227717876E0,9.778269768E0
3.911627810E-1,-5.108676553E-1,2.270788670E0,9.725028992E0
3.959388750E-1,-5.587241054E-1,2.294716835E0,9.619745255E0
4.007149690E-1,-6.640082598E-1,2.270788670E0,9.495318413E0
4.054910620E-1,-8.548358679E-1,2.255833626E0,9.409774780E0
4.102671560E-1,-9.457631707E-1,2.260020971E0,9.357730865E0
4.150432500E-1,-9.128618240E-1,2.279761791E0,9.251849174E0
4.198193440E-1,-8.512466550E-1,2.308475733E0,9.203991890E0
4.245954370E-1,-8.464609981E-1,2.333002090E0,9.237491608E0
4.293715310E-1,-8.225327730E-1,2.352144718E0,9.275776863E0
4.341476250E-1,-7.704889178E-1,2.405385017E0,9.289535522E0
4.389237190E-1,-7.136593461E-1,2.448455811E0,9.299106598E0
4.436998120E-1,-6.514459848E-1,2.429313183E0,9.341579437E0
4.484759060E-1,-6.035895348E-1,2.405385017E0,9.394221306E0
4.532520000E-1,-5.988038778E-1,2.376671076E0,9.394221306E0
4.580280940E-1,-6.364908218E-1,2.371885538E0,9.365508080E0
4.628041870E-1,-6.610172391E-1,2.357528448E0,9.317651749E0
4.675802810E-1,-6.753742099E-1,2.352742910E0,9.293723106E0
4.723564270E-1,-6.891329288E-1,2.333002090E0,9.337391853E0
4.771325210E-1,-7.166503668E-1,2.313859463E0,9.457033157E0
4.819086140E-1,-7.112665176E-1,2.318645239E0,9.591629982E0
4.866847080E-1,-7.202396393E-1,2.328216314E0,9.731011391E0
4.914608020E-1,-7.615157962E-1,2.361716032E0,9.908679008E0
4.962368960E-1,-7.896314859E-1,2.371287346E0,1.002413273E1
5.010129890E-1,-7.513462901E-1,2.366501570E0,1.007677460E1
5.057890830E-1,-6.939185858E-1,2.323430777E0,1.010548782E1
5.105651770E-1,-7.172485590E-1,2.265404940E0,1.016770172E1
5.153412710E-1,-8.021938205E-1,2.183450699E0,1.017308521E1
5.201173640E-1,-8.739784956E-1,2.111067772E0,1.011565781E1
5.248934580E-1,-9.457631707E-1,2.038684845E0,9.991828918E0
5.296695520E-1,-9.750752449E-1,1.956132531E0,9.842875481E0
5.344456460E-1,-1.013360381E0,1.864607096E0,9.717850685E0
5.392217390E-1,-1.079761267E0,1.777867198E0,9.670592308E0
5.439978330E-1,-1.150947690E0,1.705484390E0,9.675976753E0
5.487739270E-1,-1.231705427E0,1.647458434E0,9.705288887E0
5.535500730E-1,-1.317248821E0,1.622931957E0,9.792626381E0
5.583261660E-1,-1.368694544E0,1.594218135E0,9.932008743E0
5.631022600E-1,-1.220339537E0,1.979462504E0,1.013240719E1
5.678783540E-1,-1.239482164E0,2.076371908E0,1.024247742E1
5.726544480E-1,-1.297508121E0,2.003390789E0,1.011326504E1
5.774305410E-1,-1.331605792E0,1.892722726E0,9.917053223E0
5.822066350E-1,-1.407577872E0,1.877767563E0,9.927223206E0
5.869693960E-1,-2.778665304E0,2.968296528E0,1.031725311E1
5.917588230E-1,-2.801397085E0,3.035295486E0,1.053320503E1
5.965349160E-1,-1.124028444E0,3.130410194E0,1.100459099E1
6.012977290E-1,-7.118647546E-2,2.666202545E0,1.094178009E1
6.060871040E-1,6.681957245E-1,2.273181438E0,1.033340454E1
6.108631980E-1,1.554138303E0,1.885544300E0,9.469595909E0
6.156260100E-1,1.908874273E0,1.549352646E0,9.046066284E0
6.204153850E-1,2.136790514E0,1.400997639E0,8.800203323E0
6.251914790E-1,2.140978098E0,1.342971683E0,8.593224525E0
6.299542910E-1,1.911267042E0,1.351944804E0,8.517850876E0
6.347437190E-1,1.612164259E0,1.423729420E0,8.620741844E0
6.395198120E-1,1.460219979E0,1.692921996E0,8.832506180E0
6.442959060E-1,1.612164259E0,1.962712765E0,8.937192917E0
6.490720000E-1,2.171486616E0,2.292324066E0,8.737391472E0
6.538480940E-1,2.857628345E0,2.549552441E0,8.272585869E0
6.586108540E-1,3.438486099E0,2.787040234E0,7.626523972E0
6.634002810E-1,3.870390654E0,3.004786968E0,6.884748936E0
6.681763750E-1,4.174279213E0,3.180061340E0,6.119643688E0
6.729391870E-1,4.398007870E0,3.330210924E0,5.360520840E0
6.777285620E-1,4.493721008E0,3.451048374E0,4.664209366E0
6.825046560E-1,4.613361835E0,3.547957659E0,4.116253376E0
6.872674690E-1,4.534996986E0,3.634697676E0,3.771088600E0
6.920568440E-1,4.504488468E0,3.533600807E0,3.397209883E0
6.968329370E-1,4.555934429E0,3.269193888E0,3.109472990E0
7.015957500E-1,4.542175770E0,2.931207657E0,2.955734253E0
7.063851770E-1,4.481158733E0,2.632703066E0,2.936591625E0
7.111612710E-1,4.167698860E0,2.362314224E0,3.035295486E0
7.159240310E-1,3.908675671E0,2.139781713E0,3.314657450E0
7.207134580E-1,3.632304668E0,1.984248161E0,3.896711588E0
7.254895520E-1,3.318845034E0,1.954337835E0,4.714458942E0
7.302656460E-1,2.956930637E0,2.001596212E0,5.513063431E0
7.350417390E-1,2.285145521E0,2.210968018E0,7.771887779E0
7.398178330E-1,1.488933921E0,2.693720102E0,1.169611740E1
7.445806460E-1,3.030509949E0,2.688934565E0,9.451649666E0
7.493700210E-1,2.796611547E0,2.514856577E0,9.996016502E0
7.541461140E-1,2.414956331E0,2.330011129E0,1.117866898E1
7.589089270E-1,2.303091764E0,1.972882271E0,1.143829060E1
7.636983020E-1,2.404188633E0,1.655235052E0,1.147657585E1
7.684744480E-1,3.457628727E0,1.446461320E0,1.085145092E1
7.732372080E-1,4.436891556E0,1.357926846E0,9.911669731E0
7.780266350E-1,4.653441906E0,1.141974568E0,8.604590416E0
7.828027290E-1,4.532604218E0,5.204389095E-1,7.189833641E0
7.875654890E-1,5.388636589E0,1.193420291E0,5.251647472E0
7.923549160E-1,5.719444275E0,1.917249203E0,3.641277790E0
7.971310100E-1,5.462814331E0,2.124826431E0,2.241476536E0
8.018938230E-1,5.761318684E0,2.410170555E0,1.371087432E0
8.066831980E-1,4.913063049E0,2.176870346E0,1.054038405E0
8.114592910E-1,3.736392498E0,1.826920033E0,1.381855130E0
8.162221040E-1,2.468794823E0,1.423729420E0,2.319841623E0
8.210114790E-1,1.519442320E0,1.069591761E0,3.299104214E0
8.257876250E-1,1.932204217E-1,1.008574724E0,3.507878065E0
8.305503850E-1,-1.094716311E0,9.523434043E-1,3.643670797E0
8.353398120E-1,-7.465606928E-1,4.127618968E-1,4.314259052E0
8.401159060E-1,3.541377485E-1,-2.883351147E-1,4.995017052E0
8.448786660E-1,8.931210637E-1,-1.043270707E0,5.669793129E0
8.496680940E-1,1.130010486E0,-1.544566989E0,5.961717606E0
8.544441870E-1,1.539183140E0,-1.682752490E0,5.901896954E0
8.592070000E-1,2.060220242E0,-1.594816327E0,5.635097504E0
8.639963750E-1,2.386840582E0,-1.459023595E0,5.345565796E0
8.687724690E-1,2.612962246E0,-1.424925923E0,4.974678040E0
8.735485620E-1,2.756531715E0,-1.476969719E0,4.393820763E0
8.783246560E-1,2.844467878E0,-1.597209096E0,3.884149313E0
8.831008020E-1,2.985046148E0,-1.779661894E0,3.437289715E0
8.878635620E-1,3.282952785E0,-1.971087694E0,3.004188776E0
8.926529890E-1,3.501297712E0,-2.240280151E0,2.739183664E0
8.974290830E-1,3.644268990E0,-2.538784742E0,2.705085993E0
9.021941020E-1,3.893122435E0,-2.750549555E0,2.852244616E0
9.069835290E-1,4.167100430E0,-2.947359324E0,3.216551781E0
9.117596220E-1,4.618147850E0,-3.023331404E0,3.679563046E0
9.165224350E-1,4.950749874E0,-2.984447956E0,4.460221291E0
9.213118100E-1,5.088935375E0,-2.936591625E0,5.294120312E0
9.260879040E-1,5.410770416E0,-2.863610506E0,5.935396671E0
9.308507160E-1,5.799603939E0,-2.839084148E0,6.413362980E0
9.356400910E-1,6.101697922E0,-2.848057270E0,6.843472958E0
9.404161850E-1,6.351149559E0,-2.876172781E0,7.211967468E0
9.451789970E-1,6.619145870E0,-2.933600664E0,7.454838753E0
9.499684240E-1,6.972086906E0,-2.980858803E0,7.511668682E0
9.547445180E-1,7.294519901E0,-2.999403238E0,7.336394310E0
9.595072790E-1,7.439883709E0,-3.075973511E0,6.908677101E0
9.642967060E-1,7.473981380E0,-3.215355396E0,6.208178520E0
9.690727990E-1,7.522436142E0,-3.431307554E0,5.435894966E0
9.738356120E-1,7.685746193E0,-3.633501291E0,4.820341110E0
9.786249870E-1,7.941180229E0,-3.839882135E0,4.445266247E0
9.834010810E-1,8.254639626E0,-4.026522160E0,4.256233215E0
9.881638930E-1,8.421539307E0,-4.387240410E0,4.106681824E0
9.929532680E-1,8.492725372E0,-4.743771076E0,3.957728624E0
9.977294140E-1,8.642875671E0,-4.724030018E0,4.393820763E0
1.002492174E0,8.918049812E0,-4.627120972E0,5.015954494E0
1.007281602E0,9.253045082E0,-4.515854359E0,5.441876888E0
1.012057695E0,9.564111710E0,-4.558925152E0,5.775675774E0
1.016820456E0,9.837491989E0,-4.716851711E0,6.033502102E0
1.021609883E0,1.012463093E1,-4.899902344E0,6.186044693E0
1.026385977E0,1.021017456E1,-4.966901779E0,6.094519138E0
1.031148789E0,1.024128056E1,-5.044070244E0,5.672185898E0
1.035938164E0,1.058584690E1,-5.197210789E0,5.248058319E0
1.040714258E0,1.122293663E1,-5.286941528E0,5.033302307E0
1.045477070E0,1.194556904E1,-5.434100151E0,4.943571568E0
1.050266497E0,1.248335552E1,-5.635097504E0,4.825725079E0
1.055042591E0,1.283510113E1,-5.816951752E0,4.674977303E0
1.059805352E0,1.311087322E1,-5.971288681E0,4.558925152E0
1.064594779E0,1.335254860E1,-6.076572895E0,4.456632137E0
1.069370872E0,1.354816151E1,-6.109474182E0,4.451248169E0
1.074133633E0,1.374377537E1,-6.109474182E0,4.545764923E0
1.078923060E0,1.396870041E1,-6.089733601E0,4.770092010E0
1.083699154E0,1.418943787E1,-6.060421467E0,5.109872818E0
1.088461966E0,1.439163208E1,-6.031109333E0,5.511867046E0
1.093251341E0,1.461835194E1,-6.025725842E0,5.966503143E0
1.098027435E0,1.490130329E1,-6.005984783E0,6.378068924E0
1.102790247E0,1.516989708E1,-5.971887112E0,6.731608391E0
1.107579674E0,1.542772388E1,-5.942574978E0,6.922435760E0
1.112355768E0,1.561855125E1,-5.922834396E0,6.959524632E0
1.117118529E0,1.575613880E1,-5.937191010E0,6.887141705E0
1.121907956E0,1.583629799E1,-5.985047817E0,6.751947403E0
1.126684049E0,1.584467316E1,-6.042475224E0,6.589235306E0
1.131460143E0,1.570529175E1,-6.071787357E0,6.330212116E0
1.136236237E0,1.545045567E1,-6.009573936E0,5.947958946E0
1.141012331E0,1.517587948E1,-5.884549141E0,5.493322372E0
1.145788424E0,1.494437408E1,-5.739783287E0,5.018945694E0
1.150564570E0,1.483669662E1,-5.609972477E0,4.544568539E0
1.155340664E0,1.485763359E1,-5.585446358E0,4.097708702E0
1.160103424E0,1.495992756E1,-5.642873764E0,3.732803345E0
1.164892852E0,1.511605930E1,-5.753541946E0,3.463610888E0
1.169668945E0,1.531466293E1,-5.834897995E0,3.309273720E0
1.174431758E0,1.550967789E1,-5.868397713E0,3.269792080E0
1.179221133E0,1.565803337E1,-5.771488190E0,3.384049416E0
1.183997227E0,1.577288914E1,-5.549553871E0,3.623331785E0
1.188773320E0,1.590269947E1,-5.274977684E0,3.953541279E0
1.193549414E0,1.603729630E1,-5.058426857E0,4.360919476E0
1.198325560E0,1.621974754E1,-4.942375183E0,4.700101852E0
1.203101654E0,1.639741516E1,-4.879563808E0,4.992026329E0
1.207877747E0,1.660678673E1,-4.811367989E0,5.100899696E0
1.212653841E0,1.682513237E1,-4.670789719E0,4.999204636E0
1.217429935E0,1.703749466E1,-4.433900356E0,4.810770035E0
1.222206029E0,1.726720619E1,-4.130012035E0,4.444668293E0
1.226982122E0,1.758186340E1,-3.811168194E0,3.972085476E0
1.231744935E0,1.796890259E1,-3.554538012E0,3.591028690E0
1.236534310E0,1.826621056E1,-3.442673683E0,3.239283562E0
1.241310456E0,1.846840286E1,-3.494717360E0,2.868396044E0
1.246073216E0,1.843011856E1,-3.668795347E0,2.672184706E0
1.250862643E0,1.811725616E1,-3.886542082E0,2.793620348E0
1.255638737E0,1.755494308E1,-4.167100430E0,3.300898790E0
1.260414831E0,1.676232147E1,-4.424927235E0,4.145565033E0
1.265190924E0,1.566162205E1,-4.664209366E0,5.336592674E0
1.269967018E0,1.416551018E1,-4.828117847E0,7.273582458E0
1.274729831E0,1.252283764E1,-4.721039295E0,8.717052460E0
1.279519206E0,1.124746323E1,-4.594219685E0,7.888537884E0
1.284295352E0,1.168475151E1,-4.404588223E0,6.384050846E0
1.289058112E0,1.253719425E1,-4.011567116E0,5.164907455E0
1.293847539E0,1.295234871E1,-3.952344894E0,3.890729666E0
1.298623633E0,1.292184067E1,-4.255036831E0,2.619542599E0
1.303386393E0,1.287637711E1,-4.640281200E0,1.948355794E0
1.308175820E0,1.290808201E1,-4.799404144E0,1.636092424E0
1.312951914E0,1.265922832E1,-4.462614059E0,1.493121386E0
1.317714727E0,1.216989613E1,-3.765106440E0,1.313061476E0
1.322504102E0,1.155254745E1,-3.034099102E0,1.037886858E0
1.327280195E0,1.117268753E1,-2.548356056E0,6.119644046E-1
1.332043008E0,1.107159042E1,-2.446661234E0,-2.847459018E-1
1.336832435E0,1.102074242E1,-2.495115757E0,-8.267202377E-1
1.341608529E0,1.099262714E1,-2.533999205E0,-7.980063558E-1
1.346371289E0,1.082692432E1,-2.635694027E0,-6.963114142E-1
1.351160716E0,1.046082211E1,-2.790629387E0,1.794616925E-3
1.355936810E0,1.004028416E1,-3.023331404E0,1.107876897E0
1.360699622E0,9.702297211E0,-3.265604734E0,2.611765862E0
1.365488997E0,9.357132912E0,-3.464209080E0,3.597608805E0
1.370265091E0,9.090931892E0,-3.518645763E0,4.299902439E0
1.375027904E0,9.292527199E0,-3.831507206E0,4.447659016E0
1.379817331E0,9.609575272E0,-4.394418716E0,4.710271358E0
1.384593424E0,9.240483284E0,-4.481756687E0,4.203591347E0
1.389356185E0,8.645268440E0,-4.077968121E0,2.833700180E0
1.394145612E0,8.327022552E0,-3.760919094E0,2.187638044E0
1.398921706E0,8.860024452E0,-3.580859184E0,2.391027927E0
1.403697799E0,9.710074425E0,-3.511467218E0,2.889931440E0
1.408473893E0,1.038544846E1,-3.558127165E0,3.668795347E0
1.413249987E0,1.018684387E1,-3.486342669E0,3.890729666E0
1.418026133E0,9.532406807E0,-3.454039574E0,3.424129248E0
1.422802227E0,8.745766640E0,-3.600599766E0,3.130410194E0
1.427578320E0,8.141578674E0,-3.713062525E0,2.279761791E0
1.432341081E0,7.463811874E0,-3.921238184E0,1.059422255E0
1.437130508E0,6.708278179E0,-4.201796532E0,2.333002090E-1
1.441906602E0,6.118447304E0,-4.415356159E0,9.613165259E-1
1.446669414E0,5.140381336E0,-4.736592293E0,1.878365755E0
1.451458789E0,3.482155085E0,-5.380859852E0,1.887338877E0
1.456234935E0,2.730808735E0,-5.865406513E0,3.230908871E0
1.460997695E0,2.335993052E0,-6.522236347E0,4.442275047E0
1.465787122E0,1.971087694E0,-6.922435760E0,4.554738045E0
1.470563216E0,1.231705427E0,-6.963113785E0,4.880161762E0
1.475326029E0,9.170492887E-1,-6.857829571E0,4.992026329E0
1.480115404E0,1.371685624E0,-6.769893646E0,4.625326157E0
1.484891497E0,2.203789711E0,-6.517450809E0,4.606183529E0
1.489654310E0,2.748754978E0,-5.957530022E0,4.603192329E0
1.494443737E0,3.589233875E0,-5.329414368E0,4.646263599E0
1.499219831E0,4.785645485E0,-4.536193371E0,4.673182487E0
1.503982591E0,5.730810165E0,-3.917050600E0,4.691727161E0
1.508772018E0,7.011568546E0,-3.384049416E0,4.430311203E0
1.513548112E0,8.254041672E0,-2.797807932E0,4.024727821E0
1.518310872E0,9.263813019E0,-2.106282234E0,3.765106440E0
1.523100299E0,8.962915421E0,-1.697707653E0,3.814159393E0
1.527876393E0,7.991429329E0,-1.858624935E0,3.594019651E0
1.532639206E0,7.960322857E0,-1.840080619E0,3.939184189E0
1.537428633E0,8.442476273E0,-1.848455548E0,4.287340164E0
1.542204727E0,8.234899521E0,-1.930409670E0,3.693321705E0
1.546980820E0,7.859225750E0,-1.926820397E0,3.680759430E0
1.551756914E0,8.446065903E0,-1.761117458E0,3.313461065E0
1.556533008E0,8.986245155E0,-1.518844128E0,3.012563705E0
1.561309102E0,7.913662910E0,-1.689931035E0,2.653640270E0
1.566085195E0,6.555736065E0,-2.001596212E0,2.157129526E0
1.570861289E0,5.555535793E0,-2.427518606E0,2.431107759E0
1.575624102E0,5.553741455E0,-2.519642353E0,2.934797049E0
1.580413529E0,4.654039860E0,-2.603989124E0,3.607180119E0
1.585189622E0,4.312464714E0,-2.571686029E0,3.814757586E0
1.589952383E0,3.698107481E0,-2.379662037E0,3.812962770E0
1.594741810E0,3.494119167E0,-2.699103832E0,4.524827480E0
1.599517904E0,3.795614958E0,-2.760719061E0,4.782654285E0
1.604293997E0,4.444668293E0,-2.296511650E0,4.495515347E0
1.609070091E0,5.127220631E0,-1.596012712E0,2.960519791E0
1.613846237E0,5.275575638E0,-1.266999602E0,1.677966833E0
1.618608997E0,5.684150219E0,-1.314257860E0,1.512862086E0
1.623398424E0,6.184250355E0,-1.235294700E0,9.397810698E-1
1.628174518E0,6.266204357E0,-1.090528965E0,4.205385745E-1
1.632937331E0,6.374479294E0,-1.157527924E0,1.896311939E-1
1.637726706E0,7.862216949E0,-2.358126640E0,-7.531409264E-1
1.642502799E0,8.356932640E0,-2.708675146E0,-8.703892231E-1
