Time (s),Acceleration x (m/s^2),Acceleration y (m/s^2),Acceleration z (m/s^2)
9.000593187,-1.594697466173133,-2.024419909596714,0.22197311556532873
9.005348239,-1.7926783113609457,-2.2247651953407477,0.4325467605874445
9.010103343,-1.9840390785557198,-2.42041848270468,0.6455518702560925
9.014858395,-2.1676406272734607,-2.609721074403938,0.8604695273309917
9.0196135,-2.3423857669011374,-2.7910149471433714,1.0767864645905292
9.024368552,-2.5072282129488417,-2.962655162186809,1.2939981470817152
9.029123604,-2.6611811923984865,-3.1230224160356586,1.5116115397709893
9.033878708,-2.803325613490572,-3.2705356374901506,1.7291475129807605
9.03863376,-2.9328177192164,-3.403664532493032,1.9461428415431765
9.043388812,-3.048896148640178,-3.5209419738327314,2.162151758661578
9.048143916,-3.150888335700996,-3.6209761294616736,2.376747032439626
9.052898968,-3.238216181075227,-3.7024622212793794,2.5895205421201424
9.05765402,-3.310400938888804,-3.764193806003675,2.800083342185728
9.062409125,-3.367067266614027,-3.8050734712967,3.00806521517836
9.067164177,-3.4079463935473537,-3.8241228436269368,3.2131137276548847
9.071919229,-3.432878371039619,-3.8204918094534155,3.41489281720221
9.076674333,-3.4418133762767655,-3.793466858271792,3.61308095099791
9.081429385,-3.434812050940189,-3.74247846488678,3.807368907298378
9.086184437,-3.412044866467896,-3.667107438860236,3.9974572399957635
9.090939541,-3.373790518742715,-3.5670901811253843,4.183053492775893
9.095694593,-3.320433366599106,-3.4423228007624576,4.363869233396332
9.100449645,-3.252459940240386,-3.2928640582761886,4.539616980305523
9.10520475,-3.170454557162187,-3.1189371147471947,4.710007093485151
9.109959802,-3.0750940942056935,-2.920930078379761,4.874744699359884
9.114714854,-2.9671419746921233,-2.6993953508543536,5.033526716281105
9.119469958,-2.8474414390306038,-2.4550477853522863,5.186039042857732
9.12422501,-2.716908175598805,-2.188761676187255,5.331953966636161
9.128980114,-2.5765223959899872,-1.9015666068307753,5.4709278456175054
9.133735166,-2.4273204448955763,-1.5946421890188187,5.602599110056494
9.138490218,-2.2703860399757536,-1.2693117308810897,5.72658662701176
9.14324527,-2.1068412410316895,-0.9270348769547391,5.842488465235106
9.148000375,-1.9378372504417491,-0.5693992678125405,5.9498810933090125
9.152755427,-1.7645451477734886,-0.1981112720827337,6.048319039817607
9.157510479,-1.5881466602684997,0.18501415096414675,6.137335041258748
9.162265583,-1.4098250672234094,0.5780643942603038,6.216440701609441
9.167020635,-1.230756330247244,0.9790408810379083,6.285127686532765
9.171775687,-1.0521005334739164,1.3858714017094749,6.342869474148103
9.176530791,-0.8749937088055615,1.79642302701753,6.389123681973401
9.181285843,-0.7005401118339699,2.20851550952193,6.423334985421722
9.186040947,-0.5298050045658678,2.6199350810305373,6.444938637009683
9.190796,-0.36380799148480475,3.0284485502880445,6.453364587508425
9.195551052,-0.20351694579213647,3.4318176031960244,6.448042201046831
9.200306104,-0.049842552999696095,3.8278132069868724,6.428405546024476
9.205061208,0.09636651037077983,4.214230019953741,6.393899232893296
9.20981626,0.23432775416000187,4.5889007093329965,6.343984758674821
9.214571312,0.3633284074494418,4.94971008152833,6.27814730678487
9.219326416,0.4827283137797205,5.294608930880561,6.195902939704181
9.224081468,0.591962201941646,5.621627515520245,6.096806111660453
9.22883652,0.6905413509008858,5.928888571462045,5.980457419126013
9.233591625,0.7780546716922953,6.214619779026435,5.846511498823145
9.238346677,0.8541692324145527,6.477165598929842,5.694684976171858
9.243101729,0.9186302548776851,6.714998398985889,5.524764361714437
9.247856833,0.9712606131360776,6.926728796317509,5.336613788965294
9.252611885,1.0119598651932646,7.111115144289861,5.130182484345312
9.257366937,1.0407028496551523,7.267072098013046,4.905511858408556
9.262122041,1.0575378790875043,7.3936781971903605,4.662742107538735
9.266877093,1.062584561419932,7.490182410271982,4.402118216765934
9.271632197,1.0560312800958342,7.556009589330217,4.123995257390275
9.27638725,1.0381323629091208,7.590764790865596,3.828842877727132
9.281142302,1.0092049686220956,7.594236423955123,3.517248891486503
9.285897354,0.9696257195129365,7.56639819379361,3.189921875977893
9.290652458,0.919827106962384,7.507409815735701,2.8476927013517352
9.29540751,0.8602936961097771,7.417616482381998,2.4915149222946416
9.300162614,0.791558154569955,7.297547074043731,2.12246397485073
9.304917666,0.7141971292817307,7.147911111064493,1.7417351332410536
9.309672718,0.6288269948192106,6.96959445496666,1.3506401946180318
9.31442777,0.5360994959857498,6.763653774174168,0.9506028735347175
9.319182875,0.43669730722955585,6.531309799054408,0.5431529024165448
9.323937927,0.33132953132128196,6.273939400130672,0.12991884936385079
9.328692979,0.2207271597566782,5.993066532467273,-0.28738031994893404
9.333448083,0.10563851745662198,5.690352098347471,-0.7069448938004668
9.338203135,-0.013175285479247508,5.367582789374961,-1.1269052210115562
9.342958239,-0.13494487196132313,5.026658977973217,-1.545333598250031
9.347713291,-0.2588970627421924,4.669581736891748,-1.9602571477443156
9.352468343,-0.38425926426913515,4.298439073715726,-2.3696715793478194
9.357223395,-0.5102637556060294,3.9153914754759995,-2.771555715619098
9.3619785,-0.6361518501726009,3.5226568662340654,-3.1638866440836773
9.366733552,-0.7611779077982177,3.1224950879354756,-3.544655347440302
9.371488656,-0.884613172411417,2.717192021838047,-3.9118826504922812
9.376243708,-1.0057494106397902,2.309043474365662,-4.263635312358242
9.38099876,-1.123902326774195,1.9003389572400629,-4.598042084380931
9.385753812,-1.2384147300923976,1.4933454971153814,-4.913309548422563
9.390508916,-1.3486594316265064,1.0902916145695296,-5.20773754719463
9.395263968,-1.4540418493176102,0.6933516160321359,-5.479734018179733
9.40001902,-1.5540023033246777,0.3046303448367301,-5.727829045814514
9.404774125,-1.6480179871819856,-0.07385146118891943,-5.950687953172313
9.409529177,-1.7356046056381456,-0.4401710586602013,-6.14712326468136
9.414284229,-1.8163176763979403,-0.7925166897355491,-6.316105385694126
9.419039333,-1.889753500469108,-1.1291995360776792,-6.456771863113439
9.423794385,-1.9555498139911445,-1.448664504324223,-6.568435113585992
9.428549437,-2.0133861427544715,-1.7494997229139286,-6.650588531300419
9.433304541,-2.0629838885587635,-2.0304446448915647,-6.702910914960309
9.438059593,-2.104106183560908,-2.290396669903455,-6.725269181466045
9.442814645,-2.136557554172669,-2.5284162209934724,-6.717719360563438
9.44756975,-2.160183439098246,-2.743730237624935,-6.680505888762847
9.452324802,-2.1748696060378285,-2.935734074725116,-6.614059241331932
9.457079854,-2.1805415081163786,-3.103991827146923,-6.518991958023209
9.461834958,-2.177163614554769,-3.248235128075509,-6.396093131990329
9.46659001,-2.1647387414402237,-3.36836049679087,-6.246321442963907
9.471345062,-2.1433073989884988,-3.4644253343184346,-6.070796825998882
9.476100166,-2.112947162675901,-3.5366426838748937,-5.870790876440805
9.480855218,-2.073772067947532,-3.5853748862178274,-5.647716100313818
9.48561027,-2.0259320223326758,-3.6111262680313025,-5.403114127032224
9.490365322,-1.9696122247865624,-3.6145350045874522,-5.138643008050695
9.495120427,-1.905032579698338,-3.596364296517802,-4.856063730674505
9.499875479,-1.832447091838568,-3.5574929950598215,-4.557226080633476
9.504630531,-1.7521432280989815,-3.4989058010586063,-4.244053990081434
9.509385635,-1.664441231821607,-3.4216831507276426,-3.9185305094046496
9.514140687,-1.5696933756148985,-3.326990886180165,-3.5826825417405
9.518895739,-1.4682831388378723,-3.216069791696951,-3.238565478631733
9.523650843,-1.3606242967330455,-3.0902250586234445,-2.8882478738591
9.528405895,-1.2471599100886652,-2.9508157241751154,-2.533796289984978
9.533160947,-1.128361207786767,-2.7992441140827204,-2.1772604480151685
9.537916052,-1.0047263595082168,-2.6369453076188045,-1.8206588043508027
9.542671104,-0.8767791412798375,-2.4653766371622017,-1.4659646706023832
9.547426156,-0.7450675010645331,-2.2860072332441224,-1.1150929809763954
9.55218126,-0.610162033911531,-2.100307629449964,-0.7698877993815239
9.556936312,-0.4726543754822791,-1.9097394488232795,-0.43211064517472353
9.561691364,-0.3331555188532045,-1.7157452037828107,-0.10342970381844005
9.566446468,-0.19229405273091013,-1.519738254391172,0.21459002230497146
9.57120152,-0.050714310304906175,-1.3230929844468011,0.5204955763419515
9.575956572,0.09092559222321477,-1.1271352703895188,0.812953881978857
9.580711625,0.23195585882553227,-0.9331333330561439,1.0907585136366678
9.585466729,0.3716972993388044,-0.7422890751283443,1.352835366551315
9.590221781,0.5094638453869413,-0.5557300158549818,1.598247194365818
9.594976833,0.6445653474229949,-0.3745019379761543,1.8261969874279176
9.599731937,0.7763107022047163,-0.199562359259759,2.036030173914281
9.604486989,0.9040113531937477,-0.03177493302798309,2.227235637854995
9.609242041,1.0269851943396422,0.12809513064299655,2.3994455621106803
9.613997093,1.1445608911684684,0.2793845476422125,2.552434118893162
9.618752197,1.2560826132203635,0.42153428983693175,2.6861150438059034
9.62350725,1.3609151499805066,0.5540907261567452,2.80053814025005
9.628262354,1.4584493597743489,0.6767055599239503,2.895884769030845
9.633017406,1.5481078789718699,0.7891345695815399,2.97246238377433
9.637772458,1.6293509988491253,0.8912351821686245,3.0306981774169275
9.642527562,1.7016826013697501,0.9829629308837597,3.071131909460667
9.647282614,1.7646560345893207,1.0643668692947832,3.0944079884197992
9.652037666,1.817879804302199,1.135584034521897,3.1012668891555495
9.656792718,1.8610229608670352,1.1968330693196885,3.092535990595286
9.661547822,1.893820067786492,1.2484071277555846,3.069119925382903
9.666302875,1.9160756499506721,1.2906662006371268,3.0319905387835218
9.671057927,1.9276680328797822,1.324029004698279,2.9821765589855276
9.675813031,1.9285524985896034,1.3489645836850817,2.9207530840899056
9.680568083,1.9187636980256972,1.3659837698121708,2.848830991945446
9.685323135,1.8984172738451113,1.3756306505549492,2.7675463772625135
9.690078187,1.8677106604173455,1.3784741784193626,2.678050116243884
9.694833291,1.8269230403316388,1.3751000503058874,2.581497652878038
9.699588343,1.7764144487552427,1.3661029685971575,2.4790390938610405
9.704343395,1.7166240290360106,1.3520793785902447,2.3718096916227798
9.7090985,1.6480674551173033,1.3336207570887637,2.260920787671502
9.713853552,1.5713335485035695,1.3113075058934582,2.1474512816805587
9.718608604,1.4870801293762996,1.285703482831762,2.0324396853845523
9.723363708,1.396029152571609,1.2573511831604407,1.9168768141524877
9.72811876,1.2989611889235375,1.2267675668345261,1.8016991626582286
9.732873812,1.1967093204136423,1.1944405130852065,1.6877830040369015
9.737628916,1.0901525233954312,1.160825873329812,1.5759392442149964
9.742383968,0.9802086179839716,1.1263450865147737,1.4669090549180865
9.74713902,0.8678268637831523,1.0913833171052538,1.3613603004965251
9.751894072,0.7539802826665717,1.0562880744922252,1.2598847654159553
9.756649177,0.6396577883987368,1.0213682730331561,1.16299618118633
9.761404229,0.5258562005020622,0.9868936938244092,1.0711290437517655
9.766159281,0.41357221605969524,0.9530948122448412,0.9846382050072121
9.770914385,0.3037944084001595,0.9201629589309217,0.9037992151509514
9.775669437,0.19749531632169628,0.8882507857174634,0.8288093859584675
9.780424489,0.09562368224489066,0.857473011770515,0.7597895387518668
9.785179593,-0.0009031070770706084,0.8279074282943927,0.696786395006093
9.789934645,-0.09120632762855431,0.7995961425873888,0.6397755625271985
9.794689697,-0.1744529264618612,0.7725470437416819,0.5886650662881691
9.79944475,-0.2498621872005039,0.746735472911889,0.5432993703965798
9.804199854,-0.31671201048566944,0.7221060808724301,0.5034638360775662
9.808954906,-0.3743447685326206,0.6985748546761713,0.4688895596051224
9.813709958,-0.42217269404453783,0.676031293790042,0.43925853344854504
9.818465062,-0.45968276470080194,0.6543407143043136,0.4142090732951465
9.823220114,-0.4864410455224576,0.6333466578648164,0.39334145299409723
9.827975166,-0.502096452822789,0.6128733800106421,0.37622368890200847
9.832730218,-0.506383905339534,0.592728390752625,0.36239741476680365
9.837485322,-0.4991268306514859,0.572705018664396,0.3513837884025757
9.842240375,-0.48023899822104504,0.5525849686878662,0.3426893722485516
9.846995427,-0.4497256544717115,0.5321408435042017,0.3358119316855216
9.851750531,-0.4076839402710094,0.5111385988637698,0.33024609778975195
9.856505583,-0.35430257706151447,0.4893399047744057,0.3254888449590058
9.861260635,-0.2898608146232856,0.4665043868852199,0.3210447383395833
9.866015739,-0.21472664096611813,0.4423917256835447,0.31643091095285136
9.870770791,-0.12935426300719174,0.41676359513399935,0.31118173561091383
9.875525843,-0.0342808753256199,0.3893854269879486,0.30485316191759293
9.880280895,0.06987725678734744,0.36002799196384117,0.2970266937161692
9.885036,0.18242936475651284,0.3284687940513991,0.28731298716766107
9.889791052,0.3026153505784037,0.29449327902120026,0.2753550542180489
9.894546104,0.42961151476238496,0.2578958625938607,0.2608310606425794
9.899301208,0.5625367786971959,0.2184807875038267,0.2434567122426435
9.90405626,0.7004593359018514,0.1760628218096373,0.22298722706923618
9.908811312,0.84240366256466,0.13046781322028303,0.19921889554391256
9.913566416,0.9873578157666675,0.0815331159333411,0.17199023380749054
9.918321468,1.1342809478350875,0.02910790758307011,0.14118273844629722
9.92307652,1.2821109671873285,-0.026946585490162784,0.10672125299573124
9.927831572,1.429772279469408,-0.08675693613560392,0.06857395847734697
9.932586677,1.5761835473505263,-0.15043741877556552,0.026752001889490378
9.937341729,1.7202654125899002,-0.21808994746043503,-0.01869122178218951
9.942096781,1.860948129560307,-0.2898040306367757,-0.06766111671965312
9.946851885,1.9971790649477845,-0.3656567235632642,-0.12002324337225577
9.951606937,2.1279300235210967,-0.4457125593132228,-0.1756049642083908
9.956361989,2.2522043643749776,-0.5300234395179012,-0.23419735460808166
9.961117041,2.369043875644547,-0.6186284665681911,-0.2955573530963681
9.965872145,2.4775353781933234,-0.7115537000775238,-0.35941012292615143
9.970627197,2.576817030133597,-0.8088118221911075,-0.4254515951923556
9.97538225,2.666084304308505,-0.9104016989219453,-0.4933511624968655
9.980137354,2.7445956102225515,-1.0163078280933946,-0.5627544919332497
9.984892406,2.8116775306065893,-1.1264996685067108,-0.6332864269613898
9.989647458,2.8667296411609278,-1.240930849331779,-0.7045539496093073
9.994402562,2.9092288804032234,-1.3595382630717792,-0.7761491772488563
9.999157614,2.9387334353530936,-1.48224104942041,-0.8476523716676478
10.00391267,2.9548861083927207,-1.6089394806508033,-0.9186349419032789
10.00866772,2.957417131357128,-1.7395137617423335,-0.988662425874847
10.01342282,2.946146394932327,-1.8738227603237598,-1.057297438825444
10.01817788,2.9209850648848383,-2.011702682869313,-1.1241025786347782
10.02293293,2.8819365615411554,-2.152965714668101,-1.188643278949253
10.02768798,2.82909688521304,-2.297398642132319,-1.2504906007613972
10.03244308,2.762654277733951,-2.444761477198337,-1.309223951726045
10.03719814,2.6828882186074368,-2.5947861050072034,-1.3644337205141204
10.04195319,2.590167763018385,-2.7471749777363472,-1.4157238113969572
10.04670829,2.484949237582293,-2.901599879308394,-1.4627140625451125
10.05146334,2.3677733176405664,-3.057700787557275,-1.5050425305983928
10.0562184,2.2392615166392282,-3.21508486205446,-1.5423676240863435
10.0609735,2.100112123272208,-3.373325586937215,-1.5743700692121736
10.06572855,1.951095625434156,-3.531962098525486,-1.6007546931692893
10.0704836,1.7930496616285696,-3.6904987271653376,-1.6212520122513159
10.07523866,1.6268735405368824,-3.848404781665225,-1.6356196141955976
10.07999376,1.453522368373895,-4.00511460314977,-1.643643326104522
10.08474881,1.274000821962112,-4.160027913519466,-1.6451381606195499
10.08950386,1.089356603707794,-4.312510482336954,-1.63994903365302
10.09425897,0.9006736133110309,-4.4618951350549,-1.6279512470660882
10.09901402,0.7090648703569004,-4.607483124984509,-1.6090507296816963
10.10376907,0.5156652219818922,-4.7485458909582965,-1.5831840306073375
10.10852412,0.3216238705117838,-4.8843272218229075,-1.5503180606636633
10.11327923,0.12809675718148036,-5.014045847304971,-1.5104495811760719
10.11803428,-0.06376116034849878,-5.136898472187293,-1.4636044445292058
10.12278933,-0.25280369702356836,-5.252063267054098,-1.4098365974155194
10.12754444,-0.4379012540517283,-5.358703824132826,-1.3492268651149228
10.13229949,-0.6179486126914939,-5.455973580981279,-1.281881542805323
10.13705454,-0.7918726608554127,-5.543020707938376,-1.207930827167701
10.14180959,-0.9586400021925241,-5.618993447428574,-1.1275271277656005
10.1465647,-1.1172643941390525,-5.683045884528474,-1.0408433023330306
10.15131975,-1.2668139582041855,-5.734344118873546,-0.9480708630303496
10.1560748,-1.406418102751104,-5.772072798222823,-0.8494182021994647
10.16082991,-1.5352740961838134,-5.795441964029638,-0.7451088866369399
10.16558496,-1.6526532272130625,-5.803694149437135,-0.6353800691006091
10.17034001,-1.7579064889582081,-5.796111660559476,-0.5204810643092904
10.17509511,-1.8504697248887652,-5.772023963140534,-0.4006721333333859
10.17985017,-1.9298681766555765,-5.730815089132006,-0.2762235143427922
10.18460522,-1.9957203764433182,-5.6719309717503155,-0.14741472904936453
10.18936027,-2.0477413296353046,-5.5948866133897,-0.01453418340787738
10.19411538,-2.085744937642275,-5.499272988553259,0.12212093074542187
10.19887043,-2.1096456161219597,-5.384763583878748,0.2622444383099699
10.20362548,-2.1194590708054912,-5.25112047956983,0.40552070395914325
10.20838058,-2.115302201849676,-5.0981998812690215,0.55162390130149
10.21313564,-2.097392117966609,-4.925957018697107,0.7002170617027555
10.21789069,-2.0660442533050873,-4.7344503371088935,0.8509509423008961
10.22264574,-2.021669592787086,-4.523844919377479,1.0034627568121266
10.22740084,-1.9647710248402335,-4.294415089634367,1.157374814864245
10.2321559,-1.895938853692542,-4.046546162976238,1.312293115953651
10.23691095,-1.8158455161746834,-3.780735318884011,1.4678059430173493
10.24166605,-1.7252395600342165,-3.497591587918673,1.623482498457347
10.2464211,-1.6249389519923394,-3.197834951471336,1.7788716226604402
10.25117616,-1.515823794120084,-2.882294562696009,1.9335006319442707
10.25593121,-1.3988285363900634,-2.5519061034293418,2.086874309712819
10.26068631,-1.2749337809682117,-2.2077082973811777,2.238474081757352
10.26544136,-1.145157779258958,-1.8508386047808016,2.3877574044545486
10.27019642,-1.0105477254484843,-1.4825281285253533,2.534157393354336
10.27495147,-0.8721709503323652,-1.1040957670157545,2.6770827194507
10.27970657,-0.7311061169302752,-0.716941654372253,2.8159178013223305
10.28446162,-0.5884345151929479,-0.32253993451877544,2.950023323079821
10.28921668,-0.445231547346325,0.07756907849131117,3.0787371099261542
10.29397178,-0.3025584884398166,0.481787295854085,3.201375394059789
10.29872683,-0.16145459883071614,0.8884677418717215,3.317234502786059
10.30348188,-0.02292965695084992,1.2959238666580593,3.4255929978243778
10.30823694,0.112043028031709,1.7024392126141612,3.525714290161796
10.31299204,0.2425330729720749,2.1062773611826824,3.616849748786234
10.31774709,0.36765890522126593,2.505692085023453,3.6982423145205185
10.32250215,0.4865930420075661,2.898937630392734,3.769130622165678
10.32725725,0.598566740684922,3.2842790550751473,3.8287536254161045
10.3320123,0.7028740043658586,3.6600025485794396,3.876355709700545
10.33676735,0.7988749357040985,4.024425663297479,3.9111922684382674
10.34152246,0.8859984393946727,4.375907387773321,3.9325357084659984
10.34627751,0.9637442811861913,4.712857996007895,3.9396818409367933
10.35103256,1.0316845177168883,5.033748609751963,3.9319566051287627
10.35578761,1.0894643171602971,5.337120413963771,3.9087230645109794
10.36054272,1.1368021954184984,5.621593468993427,3.8693886071339514
