Time (s),X (m/s^2),Y (m/s^2),Z (m/s^2)
9.003609625,1.2113061007046602,-0.4078410061785907,-0.3700926115156856
9.013535625,1.1722761760450755,-0.30220747607565107,-0.6423272332674173
9.023462625,1.1308541405210641,-0.20224218239949776,-0.9114724006633751
9.033388625,1.0871671421045295,-0.1087282398845758,-1.1762145879608754
9.043314625,1.041347048907141,-0.02238712930522612,-1.4352631877724897
9.053240625,0.9935301950564578,0.05612885840792737,-1.6873610329291633
9.063166625,0.9438571165091606,0.12624363212012454,-1.93129461787695
9.073092625,0.8924722639917002,0.18746368494100554,-2.1659039011140866
9.083018625,0.839523684019344,0.23938377183641574,-2.3900915807506213
9.092944625,0.785162663521473,0.28169180079061046,-2.602831748166204
9.102870625,0.7295433383742588,0.31417286279495243,-2.8031778386180255
9.112796625,0.6728222703222717,0.336712333107798,-2.990269811353462
9.122722625,0.6151579997716404,0.3492979848763282,-3.1633405047594465
9.132648625,0.5567105836454465,0.3520210659175901,-3.3217211242880933
9.142574625,0.4976411282104001,0.3450763001676453,-3.464845832428074
9.152500625,0.4381113269397525,0.3287607871085073,-3.59225542088273
9.162426625,0.3782830133411377,0.30347178537984687,-3.7036000553939163
9.172352625,0.3183177382595938,0.2697033806657386,-3.7986410933373036
9.182279625,0.2583763802653394,0.22804205262868413,-3.8772519832364
9.192205625,0.19861879604807173,0.17916117083623959,-3.939418263501045
9.202131625,0.13920351500144262,0.12381446483483875,-3.98523668478597
9.212057625,0.08028747834733134,0.06282852832136576,-4.01491348630959
9.221983625,0.02202581847090136,-0.002905568511790786,-4.02876186135475
9.231909625,-0.035428330932062976,-0.07244147101092421,-4.027198651130443
9.241835625,-0.09192400825088681,-0.14478743647884207,-4.010740309244138
9.251761625,-0.14731259961639262,-0.218916823412647,-3.979998181115298
9.261687625,-0.2014480388411107,-0.29377905165610124,-3.9356731436866172
9.271613625,-0.254187055488579,-0.3683109027606693,-3.878549650977517
9.281539625,-0.30538949496907375,-0.4414480229669637,-3.8094892309230315
9.291465625,-0.35491873286676756,-0.5121364866851529,-3.7294234792101304
9.301391625,-0.40264220264523093,-0.5793442765642366,-3.6393465969373167
9.311317625,-0.44843205193381697,-0.6420725373294991,-3.540307521042405
9.321243625,-0.49216593800848557,-0.6993664642125964,-3.433401699456022
9.331169625,-0.5337279677946735,-0.7503256923558714,-3.3197625664527575
9.341095625,-0.5730097816357695,-0.7941140605437528,-3.2005527769497615
9.351022625,-0.6099117732758497,-0.8299686310368125,-3.0769552606506902
9.360948625,-0.6443444312954444,-0.8572078576302016,-2.950164157420832
9.370874625,-0.6762297799924029,-0.875238806666116,-2.8213756943320334
9.380800625,-0.705502890794115,-0.8835633502547097,-2.691779063280352
9.390726625,-0.7321134291251028,-0.8817832664030347,-2.5625473568780364
9.400652625,-0.756027196650407,-0.8696041961442411,-2.4348286199218943
9.410578625,-0.7772276252344267,-0.8468384228353013,-2.309737074003071
9.420504625,-0.7957171767547823,-0.8134064539604329,-2.188344573329646
9.430430625,-0.8115186018386572,-0.7693374013567802,-2.0716723503883196
9.440356625,-0.8246760104916772,-0.7147681712929576,-1.9606831108824185
9.450282625,-0.8352557086155099,-0.649941490127161,-1.8562735387361045
9.460208625,-0.8433467568945412,-0.5752028033071169,-1.759267273741047
9.470134625,-0.8490612127242829,-0.49099609496405267,-1.6704084260019783
9.480060625,-0.8525340217576498,-0.3978586828128091,-1.590355691832914
9.489986625,-0.8539225329629383,-0.2964150494489697,-1.5196771344349786
9.499912625,-0.8534056192382741,-0.18736977738323074,-1.4588456891164516
9.509838625,-0.851182393995422,-0.0714996619269629,-1.40823544685657
9.519761833,-0.8474705225059845,0.05035491641959704,-1.3681187618782378
9.529687833,-0.8425041355641973,0.17729927021975872,-1.3386642191923566
9.539613833,-0.8365313627002087,0.3083942354107834,-1.3199354877522405
9.549539833,-0.8298115128688687,0.44266644582245585,-1.311891075094235
9.559465833,-0.8226119416087742,0.5791189343795348,-1.3143849913201082
9.569391833,-0.8152046539883723,0.7167419342728919,-1.3271683245881951
9.579317833,-0.8078627011586156,0.8545237461953054,-1.349891726476705
9.589243833,-0.8008564344504875,0.9914615337237563,-1.3821088024624655
9.599169833,-0.7944496846377328,1.1265719082501482,-1.4232803989908234
9.609095833,-0.7888959353130085,1.2589011669358863,-1.4727797730478351
9.619021833,-0.7844345582676797,1.3875350512693563,-1.5298986219671025
9.628947833,-0.7812871753797846,1.511607899399153,-1.5938539402440601
9.638873833,-0.7796542062527672,1.6303110722851224,-1.663795657096788
9.648799833,-0.7797116544497218,1.742900542026875,-1.7388149947668072
9.658725833,-0.7816081782937647,1.848703540909687,-1.8179534745341983
9.668651833,-0.7854624852939192,1.9471241821100884,-1.9002124860787046
9.678577833,-0.7913610826588594,2.0376479777360426,-1.984563326439863
9.688504833,-0.7993564104062002,2.1198451967815997,-2.069957607273291
9.698430833,-0.8094653784660147,2.1933730243108207,-2.1553379231018885
9.708356833,-0.8216683249256627,2.257976503311111,-2.239648668562764
9.718282833,-0.8359084090336949,2.3134882616526835,-2.3218468889833295
9.728208833,-0.8520914495357391,2.3598270478372467,-2.400913045675679
9.738134833,-0.870086216042612,2.3969951200809545,-2.475861574865538
9.748060833,-0.8897251781314451,2.4250745532931286,-2.5457511171201035
9.757986833,-0.9108057135707633,2.444222547454775,-2.6096942926917666
9.767912833,-0.9330917733689051,2.4546658386407554,-2.6668668976812495
9.777838833,-0.956315997192349,2.45669433026473,-2.7165163966938635
9.787764833,-0.9801822678912986,2.4506540766636618,-2.7579695900112737
9.797690833,-1.004368688139771,2.4369397632541903,-2.790639337555509
9.807616833,-1.02853095540297,2.4159868364099677,-2.814030228701308
9.817542833,-1.0523061037563526,2.3882634411161097,-2.8277430974275335
9.827468833,-1.0753165730500187,2.354262324433581,-2.8314782979070774
9.837394833,-1.0971745583625214,2.314492856571704,-2.8250376776340422
9.847320833,-1.1174865864543133,2.2694733074677154,-2.8083252133308743
9.857247833,-1.1358582615274824,2.2197234948727567,-2.781346306664018
9.867173833,-1.1518991199634356,2.1657578925217975,-2.7442057681948913
9.877099833,-1.1652275322472272,2.108079259277793,-2.6971045455210536
9.887025833,-1.1754755893179059,2.0471728276096153,-2.6403352738017176
9.896951833,-1.1822939098608125,1.9835010750768596,-2.574276744170732
9.906877833,-1.1853563047660245,1.9174990950827489,-2.4993873989123645
9.916803833,-1.1843642352642472,1.8495705807164857,-2.416197972649196
9.926729833,-1.1790510019319778,1.7800844354779715,-2.325303406815476
9.936655833,-1.1691856025347263,1.7093720247798214,-2.227354170610017
9.946581833,-1.1545761976001496,1.6377250805029289,-2.1230471254831262
9.956507833,-1.1350731244213053,1.5653942663758522,-2.013116072305444
9.966433833,-1.1105714042144237,1.4925884043242497,-1.8983221213088468
9.976359833,-1.0810126945071166,1.4194743519595265,-1.7794440249747305
9.986285833,-1.0463866494103278,1.3461775106569782,-1.6572686126068685
9.996211833,-1.0067316629236438,1.2727829341691164,-1.5325814612105468
10.00613783,-0.9621349833968632,1.1993370008703514,-1.4061579301130585
10.01606383,-0.9127321999046513,1.1258496088874972,-1.2787546771813336
10.02599083,-0.8587061131905884,1.052296852045558,-1.15110176328314
10.03591683,-0.8002850146641445,0.9786241349743977,-1.023895439000296
10.04584283,-0.7377404064714332,0.9047496870152911,-0.8977916936463946
10.05576883,-0.6713842039654067,0.8305684357726197,-0.7734006318240281
10.06569483,-0.601565469219384,0.7559562014389674,-0.6512817275116449
10.07562083,-0.5286667307699909,0.680774172099734,-0.5319399899801535
10.08554683,-0.45309995054789914,0.6048736185232473,-0.4158230594910143
10.09547283,-0.37530220372421497,0.5281008051180925,-0.303319233856955
10.10539883,-0.2957311405986003,0.450302051818517,-0.19475641013889872
10.11532483,-0.214860301359178,0.3713288986940374,-0.09040190974800708
10.12525083,-0.1331743544062137,0.29104331989033694,0.00953685929064988
10.13517683,-0.051164326967711185,0.20932292593890853,0.10491096159540342
10.14510283,0.030677106984104228,0.12606608487820825,0.19562778384815502
10.15502883,0.11186022193412545,0.04119688508368466,0.2816482502491096
10.16495483,0.1919026666276188,-0.04533014222394232,0.3629834841938075
10.17488083,0.27033367639455025,-0.13352562466025591,0.4396909977212227
10.18480683,0.34669803707245256,-0.22336135755906608,0.5118704890128906
10.19473383,0.4205597745123171,-0.3147668001865672,0.5796593250566152
10.20465983,0.49150555140077484,-0.40762613495546357,0.6432277824150407
10.21458583,0.5591477593057076,-0.5017759592758664,0.7027741145977459
10.22451183,0.6231272985478835,-0.5970036718864775,0.758519510246673
10.23443783,0.6831160420260499,-0.6930466058787491,0.8107030023112582
10.24436383,0.7388189817600269,-0.7895919493690741,0.8595763844893878
10.25428983,0.7899760588563953,-0.8862774823100449,0.9053991872308799
10.26421583,0.8363636789187534,-0.9826931447007249,0.9484337614056
10.27414183,0.8777959155950144,-1.0783834377721329,0.9889405134374089
10.28406783,0.9141254049641838,-1.1728506457788108,1.0271733316953662
10.29399383,0.945243932926422,-1.2655588519918601,1.063375240714694
10.30391983,0.9710827168903362,-1.3559387085779468,1.0977743176788881
10.31384583,0.9916123820225546,-1.4433929065063422,1.1305799044131033
10.32377183,1.0068426311805296,-1.5273022787449304,1.1619791474776662
10.33369783,1.0168216064386506,-1.6070324581971203,1.1921338983131184
10.34362383,1.0216349391003734,-1.6819410015854739,1.221178004430783
10.35354983,1.0214044847511132,-1.7513848821710234,1.24921502117638
10.36347583,1.0162867407236187,-1.8147282478712075,1.2763163714527896
10.37340283,1.0064709455054393,-1.871350336817393,1.3025199777457046
10.38332883,0.9921768629458846,-1.920653439478178,1.3278293866208397
10.39325483,0.9736522582891467,-1.9620707950910767,1.352213400468436
10.40318083,0.9511700778428527,-1.9950743102323196,1.3756062248715193
10.41310683,0.9250253494291069,-2.0191819887735796,1.3979081330927858
10.42303283,0.8955318266455665,-2.033964965161627,1.4189866424721869
10.43295883,0.8630184062886109,-2.0390540371361894,1.4386781915681095
10.44288483,0.8278253548541649,-2.034145600132012,1.4567903019910222
10.45281083,0.7903003865800553,-2.0190068940735464,1.4731042051038756
10.46273683,0.7507946417618306,-1.9934804840219362,1.4873779108002727
10.47266283,0.7096586197353549,-1.9574879085431305,1.4993496928372423
10.48258883,0.6672381255110447,-1.9110324427389682,1.5087419619850417
10.49251483,0.6238702920563389,-1.854200935893901,1.515265493962062
10.50244083,0.5798797413873762,-1.7871646966738566,1.5186239735259144
10.51236683,0.535574947113164,-1.7101794122611917,1.5185188094607356
10.52229296,0.4912448592809556,-1.6235841017685986,1.5146541680684444
10.53221896,0.44715584954175086,-1.5277991178818864,1.5067421655735627
10.54214496,0.4035490306919764,-1.4233232226825676,1.4945081528961304
10.55207196,0.3606379992810939,-1.3107297732557712,1.4776960200196974
10.56199796,0.31860704302302084,-1.1906620601651665,1.4560734424441328
10.57192396,0.27760984631168906,-1.0638278480065495,1.4294369897082277
10.58184996,0.23776871769702065,-0.9309931730638439,1.3976170161085608
10.59177596,0.19917435343600665,-0.792975459374224,1.360482256568432
10.60170196,0.1618861416845607,-0.6506360215162114,1.3179440558582316
10.61162796,0.1259330024342673,-0.5048720299288155,1.2699601665143647
10.62155396,0.09131474834876653,-0.3566080222793819,1.2165380590614596
10.63147996,0.05800394073950562,-0.20678705245512108,1.1577376963718882
10.64140596,0.0259482032156546,-0.056361577450998436,1.0936737308216555
10.65133196,-0.004927056005436426,0.09371580862031996,1.024517087357411
10.66125796,-0.03471557224718038,0.24250167637136866,0.9504958978216776
10.67118396,-0.06352686976709258,0.38907097682122394,0.8718957531312421
10.68110996,-0.09148269598184101,0.5325260475498204,0.7890592418701284
10.69103596,-0.118713318059157,0.6720052879397911,0.702384748077928
10.70096196,-0.1453537547053565,0.8066913864483555,0.6123244884427318
10.71088796,-0.1715400129580159,0.9358189885007662,0.5193817799520916
10.72081396,-0.19740539500861196,1.0586816999819335,0.42410754273166573
10.73073996,-0.22307693420782923,1.1746383285142277,0.3270960578848861
10.74066596,-0.2486720129853411,1.283118273366853,0.22898001471882182
10.75059296,-0.27429520870472307,1.3836259856120676,0.13042489440413593
10.76051896,-0.30003540665287703,1.4757444332662961,0.03212274771457045
10.77044496,-0.32596321274871815,1.559137521352136,-0.06521456633574584
10.78037096,-0.3521286925047063,1.6335514335566363,-0.16086260582002784
10.79029696,-0.37855945746876274,1.6988148799222091,-0.25409195234823817
10.80022296,-0.40525911577516827,1.7548382533726778,-0.34417610856035324
10.81014896,-0.43220609938405957,1.8016117165062577,-0.43039958963693953
10.82007496,-0.4593528769307556,1.8392022586454784,-0.5120661050063144
10.83000096,-0.48662555776792843,1.8677497812560755,-0.5885067199065732
10.83992696,-0.5139238898024981,1.887462287169317,-0.659087880634449
10.84985296,-0.5411216511404245,1.898610265253376,-0.7232191826980332
10.85977896,-0.5680674332230906,1.9015203770074103,-0.7803607580430504
10.86970496,-0.5945858107071694,1.8965685646994972,-0.8300301562582106
10.87963096,-0.6204788903397357,1.8841727117572606,-0.8718085955195605
10.88955696,-0.6455282271704392,1.8647849946571757,-0.9053464626250841
10.89948296,-0.6694970915974114,1.8388840708789511,-0.9303679486428026
10.90940896,-0.6921330652926657,1.8069672486239379,-0.9466747184088341
10.91933496,-0.7131709385223801,1.7695427796052057,-0.9541485292502307
10.92926096,-0.7323358762147703,1.7271224049821747,-0.9527527370991488
10.93918796,-0.7493468155193536,1.6802142662588107,-0.9425326553870815
10.94911396,-0.7639200535360968,1.629316269905614,-0.9236147609958605
10.95903996,-0.7757729803524129,1.574909970995707,-0.896204768942183
10.96896596,-0.7846279095755061,1.5174550216674227,-0.8605846213439491
10.97889196,-0.7902159562995689,1.4573842169166213,-0.817108456147118
10.98881796,-0.7922809109411107,1.3950991627558738,-0.7661976377019535
10.99874396,-0.7905830564509454,1.330966588541214,-0.7083349453464639
11.00866996,-0.7849028757652028,1.2653153243012278,-0.6440580279300269
11.01859596,-0.7750445958310849,1.1984339631089476,-0.573952241037722
11.02852196,-0.7608395143753076,1.1305692258908768,-0.498642988490679
11.03844796,-0.7421490563906691,1.0619250401616644,-0.4187876905756306
11.04837396,-0.7188675097895526,0.9926623345978693,-0.3350675006815343
11.05829996,-0.6909243941799311,0.9228995386337915,-0.24817889255982412
11.06822596,-0.6582864231168288,0.8527137617106818,-0.1588252427465234
11.07815196,-0.6209590279737105,0.7821426126458264,-0.0677085339664409
11.08807796,-0.578987420159116,0.7111866083696445,0.02447869750684796
11.09800396,-0.53245717712866,0.6398121146409315,0.11706105497290431
11.10792996,-0.4814943458386772,0.5679547592250622,0.20938750965372727
11.11785596,-0.42626506445328927,0.49552325916715745,0.3008380706040574
11.12778196,-0.3669747092010316,0.42240360678140054,0.39082981459959126
11.13770796,-0.3038665787168536,0.348463562628454,0.478822206641212
11.14763496,-0.23722013363517833,0.2735574071038718,0.5643216539945783
11.15756096,-0.1673488150981572,0.1975309045843353,0.6468852493730326
11.16748696,-0.09459747231912193,0.12022643507412177,0.7261236725396039
11.17741296,-0.0193394360604061,0.041488248125775416,0.8017032345432789
11.18733896,0.05802671883917941,-0.03883220730736949,0.8733470647607176
11.19726496,0.13708067364608995,-0.12087092581071275,0.9408354572277685
11.20719096,0.21738407687465602,-0.20474601444745946,1.0040054085698806
11.21711696,0.2984844128032557,-0.2905524479335381,1.0627493942257047
11.22704296,0.3799189735151774,-0.3783569789598685,1.11701344168708
11.23696896,0.46121888184881754,-0.4681932808304693,1.1667945685709258
11.24689496,0.5419131153109134,-0.5600574054123885,1.2121376594050859
11.25682096,0.6215324849978309,-0.6539036418522336,1.2531318582220714
11.26674696,0.6996135285887894,-0.7496408607533243,1.2899065545276938
11.27667296,0.7757022819349392,-0.8471294251491396,1.322627038067578
11.28659896,0.8493578988825357,-0.9461787442174272,1.3514898935447293
11.29652496,0.9201560930969144,-1.046545538581776,1.3767182010332586
11.30645096,0.9876923786520909,-1.147932877368264,1.3985566024405434
11.31637696,1.0515850884155924,-1.2499900369093329,1.4172662898701194
11.32630296,1.1114781514289018,-1.352313219006086,1.4331199685097402
11.33622896,1.1670436130198034,-1.4544471528842164,1.446396844597268
11.34615496,1.2179838843098028,-1.555887589534891,1.457377687661887
11.35608096,1.2640337107450126,-1.6560846805025364,1.466340015132228
11.36600696,1.3049618517996484,-1.7544472161522648,1.47355344628851
11.37593396,1.3405724656918188,-1.8503476818774454,1.4792752713487929
11.38585996,1.3707061936134,-1.9431280752571365,1.4837462801357595
11.39578596,1.3952409375970636,-2.0321064132006037,1.4871868930531986
11.40571196,1.4140923249262718,-2.116583845732209,1.4897936348478953
11.41563796,1.4272138504181882,-2.1958522822500903,1.4917359889956738
11.42556396,1.4345966866804163,-2.2692024267666295,1.4931536679036552
11.43548996,1.4362691522834894,-2.335932110800497,1.4941543315984462
11.44541596,1.4322958292236743,-2.395354806415842,1.4948117847786309
11.45534196,1.422776324263629,-2.4468081977700242,1.4951646784184465
11.46526796,1.4078436735849384,-2.4896626878238113,1.4952157371882207
11.47519396,1.3876623963507817,-2.5233297176909066,1.4949315279395872
11.48511996,1.362426209971489,-2.5472697791624337,1.4942427777219278
11.49504596,1.3323554278438414,-2.5610000057880202,1.4930452425966514
11.50497196,1.297694068785519,-2.56410123433087,1.4912011213533527
11.51489796,1.258706715907009,-2.55622443662767,1.488541001677489
11.52482446,1.2156751707757407,-2.5370964321064813,1.4848663207257102
11.53475046,1.168894955814553,-2.506524803164193,1.479952317230546
11.54467646,1.1186717231714767,-2.464401948297321,1.4735514475238416
11.55460246,1.065317631156419,-2.4107082202023467,1.4653972325894518
11.56452846,1.0091477497482835,-2.3455141076769856,1.455208497155929
11.57445446,0.9504765554949614,-2.2689814317437387,1.4426939550403681
11.58438046,0.8896145746287524,-2.1813635388614028,1.4275570877974568
11.59430646,0.8268652321469933,-2.0830044873999545,1.4095012565991427
11.60423246,0.7625219636232864,-1.9743372366495764,1.3882349805199612
11.61415846,0.6968656444846087,-1.8558808591117844,1.3634773084449396
11.62408446,0.63016238724834,-1.7282368059372664,1.3349632072408706
11.63401146,0.562661750195845,-1.592084262465328,1.3024488862219392
11.64393746,0.494595391472954,-1.4481746369818194,1.2657169775729984
11.65386346,0.42617619169329324,-1.2973252322601483,1.2245814942249664
11.66378946,0.3575978569469724,-1.1404121569965973,1.1788924905119496
11.67371546,0.28903500323968345,-0.9783625431342136,1.1285403563992569
11.68364146,0.22064371255713047,-0.8121461450266505,1.0734596824677647
11.69356746,0.15256253945260786,-0.6427664068183455,1.013632639338467
11.70349346,0.08491393513074094,-0.47125109463446974,0.9490918212116309
11.71341946,0.0178060438245811,-0.2986425997865838,0.8799225084099193
11.72334546,-0.048665185314587786,-0.12598802805945195,0.8062643081193983
11.73327146,-0.11441363737107797,0.04567080218430591,0.7283121358921913
11.74319746,-0.17936049516730465,0.21530732485083603,0.6463165033600847
11.75312346,-0.2434316034159255,0.38192002333652286,0.5605830810896445
11.76304946,-0.3065548091789175,0.5445419304751751,0.4714715108442401
11.77297546,-0.3686573508472936,0.7022497048719604,0.3793934496260192
11.78290146,-0.42966336262957505,0.854172161784404,0.2848098391552952
11.79282746,-0.4894915551413765,0.999498141871507,0.1882274085294459
11.80275346,-0.5480531252726382,1.1374836074326435,0.09019443325567557
