Time (s),X (m/s^2),Y (m/s^2),Z (m/s^2)
6.003050625,-1.5016304141987469,1.5130899476561266,-0.6451109222768313
6.012976625,-1.60096229208745,1.498056504603975,-0.7651250507735912
6.022902625,-1.6931652670836075,1.4682490530354597,-0.8780212333725507
6.032828625,-1.7770842812615646,1.422867539623317,-0.9825797304614636
6.042754625,-1.851586332050933,1.3612559099078856,-1.0776829030049915
6.052680625,-1.9155746874255177,1.2829196371574896,-1.1623325370204043
6.062606625,-1.9680035748280977,1.187541974155281,-1.2356655017941884
6.072532625,-2.007893170286614,1.0749986239200602,-1.2969674510657359
6.082458625,-2.0343446956952347,0.9453705328889552,-1.3456843108191188
6.092384625,-2.0465554160373016,0.7989545206984342,-1.381431333326263
6.102310625,-2.043833314368637,0.6362714738985408,-1.4039995337516862
6.112236625,-2.0256112103469697,0.4580718471401674,-1.4133593643225444
6.122162625,-1.991460077775849,0.2653382358489174,-1.4096615248120459
6.132088625,-1.9411013082405562,0.05928481068993489,-1.3932348586524108
6.142013625,-1.8744176622454494,-0.15864656258932036,-1.3645813394369062
6.151939625,-1.7914626476589852,-0.38679365360048507,-1.3243682081617933
6.161865625,-1.692468069248502,-0.623284735595925,-1.2734173731497185
6.171791625,-1.5778495038001334,-0.8660530241336686,-1.2126922309108978
6.181717625,-1.448209473388804,-1.112854657495391,-1.1432821083725295
6.191643625,-1.3043381150948181,-1.361290124141771,-1.0663845664996512
6.201569625,-1.1472111789870136,-1.6088289733438197,-0.9832858428960534
6.211495625,-0.977985227277537,-1.852837575164926,-0.8953397459363235
6.221421625,-0.7979899553929045,-2.0906096274762143,-0.803945344121162
6.231347625,-0.6087176088780619,-2.3193990427543785,-0.7105238202281099
6.241273625,-0.41180952665441023,-2.536454787739848,-0.6164948792502188
6.251199625,-0.20903989916536675,-2.739057195772915,-0.5232531117395522
6.261125625,-0.0022968876975009178,-2.9245552252787688,-0.432144720721334
6.271051625,0.20643869235762893,-3.0904040983633134,-0.34444502181322356
6.280977625,0.4151168667750108,-3.234202720427434,-0.261337122720344
6.290903625,0.6216438658709555,-3.353730254957182,-0.18389217896004206
6.300829625,0.8239089946852195,-3.446981208065577,-0.11305160626026646
6.31075125,1.0198126004908068,-3.5121983676007074,-0.04961160554292107
6.32067725,1.2072946842254613,-3.547902946416923,0.005789677341259823
6.33060325,1.3843636654411449,-3.5529213047046255,0.05268207929173283
6.34052925,1.5491247835204658,-3.5264076770640562,0.09077021308832232
6.35045525,1.6998076039350243,-3.4678624073554407,0.11993697085041773
6.36038125,1.834792098754475,-3.3771452938387037,0.1402436580556826
6.37030725,1.9526327860357224,-3.254483760140159,0.15192675827027882
6.38023225,2.052080443406629,-3.100475684870954,0.1553914083004271
6.39015825,2.1321009572754916,-2.91608683734055,0.15120173749739746
6.40008425,2.191890930280715,-2.702642974978129,0.14006828938755228
6.41001025,2.2308897444113205,-2.46181675824962,0.12283279696406835
6.41993625,2.248787862893509,-2.1956097305350584,0.10045062562391018
6.42986225,2.245531246279818,-1.9063296932814342,0.07397123199282535
6.43978825,2.221321851862496,-1.5965638799898225,0.04451701461910912
6.44971425,2.1766142747762087,-1.2691483948075395,0.013260954032212188
6.45964025,2.1121086689116813,-0.927134431134595,-0.018596546221829807
6.46956625,2.0287401528142373,-0.5737518219920363,-0.04985120038320848
6.47949225,1.9276649590784933,-0.2123704975485523,-0.07931834857131659
6.48941825,1.8102436263119248,0.15353956222168116,-0.10585602650961091
6.49934425,1.6780215628901112,0.5204492884356529,-0.12838720377340998
6.50927025,1.5327073344530588,0.8848118108721469,-0.14592081182522676
6.51919625,1.376149044880591,1.2431034966594934,-0.15757119928687627
6.52912225,1.210309194403809,1.5918641823780433,-0.16257567166175385
6.53904825,1.0372384081772634,1.927736066292129,-0.1603097983889259
6.54897425,0.8590484329825374,2.2475007586733273,-0.15030020316786152
6.55890025,0.6778847978363064,2.5481140265379354,-0.1322345940444996
6.56882625,0.49589952576265167,2.8267378145963917,-0.1059688368582019
6.57875225,0.3152242690069068,3.080769176298745,-0.07153092793562839
6.58867825,0.13794421895857792,3.3078658066080133,-0.029121777987338237
6.59860425,-0.033926884400224844,3.505967930391646,0.020887222253147125
6.60853025,-0.19847034978846836,3.673316365923848,0.07795982423349475
6.61845625,-0.3538844794181306,3.8084666507528837,0.14140364134667824
6.62838125,-0.49850463829768676,3.9102991857852856,0.21038181745224996
6.63830725,-0.6308212614038536,3.97802542132376,0.2839274393997447
6.64823325,-0.7494956472091927,4.011190174237128,0.3609604363565977
6.65815925,-0.8533734192165682,4.009670226710069,0.44030666047846156
6.66808525,-0.9414955680160523,3.973669412571177,0.5207187998966242
6.67801125,-1.0131070148553867,3.9037104457078815,0.6008987366928109
6.68793725,-1.0676626638201592,3.800623785353501,0.6795209302502803
6.69786325,-1.1048309334268245,3.665533863813123,0.7552563811612063
6.70778925,-1.124494779527285,3.49984302192166,0.8267967139367721
6.71771525,-1.1267502397609457,3.305213504451278,0.8928779091260253
6.72764125,-1.1119025460751861,3.083547860689481,0.9523032176946459
6.73756725,-1.0804598680787458,2.8369680751218214,1.0039648030073813
6.74749325,-1.0331247685781177,2.5677937222998612,1.0468636789649497
6.75741925,-0.9707834746580911,2.2785194024990947,1.0801275471310823
6.76734525,-0.8944930923784931,1.9717916744357014,1.1030261806746338
6.77727125,-0.805466919171518,1.6503856608583485,1.1149840573526308
6.78719725,-0.7050580344836321,1.3171814640877846,1.115590005822721
6.79712325,-0.5947413758809763,0.975140493014704,1.1046036974602327
6.80704925,-0.4760945344919486,0.6272817721530827,1.0819588875326769
6.81697525,-0.3507775295696998,0.2766582784766424,1.047763382673096
6.82690125,-0.22051184577268554,-0.07366666592479111,1.002295783570685
6.83682725,-0.08705903661268312,-0.420642926996952,0.9459991204066431
6.84675325,0.04780078874880091,-0.7612570003909533,0.8794715622032783
6.85667925,0.18229027263796935,-1.0925553368267296,0.8034544393463099
6.86660525,0.31465559136147325,-1.4116675110022308,0.7188178716631438
6.87653125,0.44318640868311104,-1.7158291725641015,0.6265443435762165
6.88645625,0.5662347193272108,-2.0024046926427284,0.5277106125343616
6.89638225,0.6822323323377402,-2.268909392884986,0.4234683735506986
6.90630825,0.7897067800089583,-2.5130312170150146,0.31502412499044063
6.91623425,0.8872954771171399,-2.7326516782020756,0.2036186832041539
6.92616025,0.9737579968847122,-2.9258658897729366,0.09050677603416227
6.93608625,1.0479863767545017,-3.091001464367836,-0.0230628844583264
6.94601225,1.1090134220606185,-3.226636050948807,-0.13586667946288786
6.95593825,1.1560190383255788,-3.3316132726018406,-0.2467239648512186
6.96586425,1.1883346846660745,-3.4050568295012793,-0.3545134370557815
6.97579025,1.205446089786279,-3.446382534978802,-0.4581877065147753
6.98571625,1.2069944019188588,-3.4553080520378896,-0.556785865105497
6.99564225,1.1927759570147456,-3.431860092032532,-0.6494439090048877
7.00556825,1.1627408512871371,-3.376378833896268,-0.7354029498490939
7.01549425,1.1169904987394867,-3.28951933293028,-0.8140152030947564
7.02542025,1.0557743423445547,-3.172249721048307,-0.8847477804833153
7.03534625,0.9794858686131971,-3.0258460549855535,-0.9471843398756864
7.04527225,0.888658049262658,-2.851883736786933,-1.001024669911245
7.05519825,0.7839583016218326,-2.652225500710844,-1.0460823145638547
7.06512425,0.666183024048619,-2.4290060234525246,-1.082280373779284
7.07505025,0.5362517279529938,-2.1846132657701833,-1.1096456482751909
7.08497625,0.3952007576019149,-1.9216666939327076,-1.1283013261402308
7.09490225,0.24417656482456962,-1.6429925637039104,-1.1384584331094403
7.10482825,0.08442848892913657,-1.3515964833253191,-1.140406285242247
7.11475425,-0.08269901730215483,-1.0506335079043425,-1.1345021920892064
7.12468025,-0.25577477759656886,-0.7433760547648304,-1.1211606619058982
7.13460625,-0.43328995826102584,-0.433179964641481,-1.1008423596744112
7.14453125,-0.6136678651025529,-0.12344906453408161,-1.0740430640680134
7.15445825,-0.7952745176664199,0.18240138632052066,-1.041282860629989
7.16438325,-0.976430035560134,0.4809819654091801,-1.0030957949387358
7.17430925,-1.1554208560197645,0.7689666534857945,-0.9600201913705443
7.18423525,-1.330512782417078,1.0431302713412656,-0.9125898205273726
7.19416125,-1.4999648407754893,1.3003853549943045,-0.8613260720786208
7.20408725,-1.6620438965808049,1.537818038255373,-0.8067312606314869
7.21401325,-1.8150399584297814,1.7527225169364664,-0.7492831612978031
7.22393925,-1.9572820696066693,1.942633678380345,-0.6894308394479096
7.23386525,-2.0871546646303134,2.105357493391418,-0.6275918058088167
7.24379125,-2.203114245940555,2.2389987853234796,-0.5641504936885035
7.25371725,-2.3037062165788775,2.3419860133783414,-0.49945802049932964
7.26364325,-2.3875816881018146,2.41309273435146,-0.43383316239640196
7.27356925,-2.4535140690592288,2.4514554391142993,-0.36756444017259593
7.28349525,-2.5004152280965055,2.4565874966721712,-0.30091318727199484
7.29342125,-2.527351016937488,2.4283889789871225,-0.23411744691603303
7.30334725,-2.5335559319333014,2.3671521830678204,-0.1673965248123646
7.313274125,-2.5184466882509966,2.2735627122601483,-0.10095600715755848
7.323200125,-2.4816344780037274,2.14869602543091,-0.03499304158278934
7.333126125,-2.4229356829551,1.9940094101516115,0.03029832770051811
7.343052125,-2.342380814524419,1.811329383690309,0.09472197939285534
7.352978125,-2.240221459457782,1.602834573689813,0.1580748917007654
7.362904125,-2.1169350194083703,1.3710341792639489,0.2201428660910124
7.372830125,-1.9732270474194162,1.1187421632194117,0.280696970953542
7.382756125,-1.8100310043959864,0.8490473771313739,0.33949085704969995
7.392682125,-1.6285052841172931,0.5652798726384717,0.3962590729068998
7.402608125,-1.4300273858406005,0.2709737041690943,0.45071648165633715
7.412534125,-1.2161851488909745,-0.0301734197937805,0.5025588510172257
7.422459125,-0.9887650040009162,-0.3343432279507288,0.551464655783143
7.432385125,-0.7497372416528211,-0.6376422595965403,0.5970980984871279
7.442311125,-0.5012383477256143,-0.9361490099706241,0.6391133198850052
7.452237125,-0.24555051014311077,-1.2259622902405842,0.6771597366572707
7.462163125,0.014921544402031433,-1.5032502019475833,0.7108884091340284
7.472089125,0.2776761683310643,-1.7642990883378418,0.7399593073101102
7.482015125,0.5401425941860752,-2.005561794253005,0.7640493099500033
7.491941125,0.7997105923546128,-2.2237045433597764,0.7828607399933732
7.501867125,1.0537616069403382,-2.4156517277331626,0.7961302100616356
7.511793125,1.2997009434425368,-2.5786279017130718,0.803637525371836
7.521719125,1.5349905400756096,-2.710196281772032,0.8052143702669231
7.531645125,1.7571818201247187,-2.8082930800254506,0.8007524931545711
7.541571125,1.9639480971307033,-2.8712570446012236,0.7902111071780014
7.551497125,2.153115989057461,-2.8978536481781654,0.7736232421100335
7.561423125,2.3226952924516024,-2.8872934570814386,0.7511008146618522
7.571349125,2.470906773168743,-2.8392443244666534,0.7228382249277974
7.581275125,2.596207347185725,-2.753837175997916,0.6891143311622135
7.591201125,2.697312155104723,-2.631665286645367,0.6502927001140518
7.601127125,2.7732130799176407,-2.4737770750018346,0.6068200741409789
7.611053125,2.8231933220626133,-2.281662562337407,0.5592230390445551
7.620979125,2.846837729539738,-2.0572337568494468,0.5081029184430317
7.630905125,2.844038681104715,-1.8027993300163883,0.45412896187488866
7.640831125,2.814997430352799,-1.521034050327631,0.3980299342022775
7.650757125,2.760220927963818,-1.2149435255074867,0.34058425147491317
7.660683125,2.6805142391797667,-0.8878248726190113,0.28260884058211755
7.670609125,2.5769687584356857,-0.5432239836725006,0.22494692469451663
7.680535125,2.4509464924308966,-0.1848900835184709,0.1684549537051661
7.690460125,2.3040607390063976,0.18327171025473699,0.11398891088225215
7.700386125,2.1381535344880964,0.5572491156358201,0.0623902365676399
7.710312125,1.9552702783023794,0.9329720025031875,0.014471618415404314
7.720238125,1.757631971403122,1.3063616132123488,-0.028997095171782773
7.730164125,1.5476055246549003,1.6733790256801637,-0.0673025976884215
7.740090125,1.3276726050919823,2.0300722246735523,-0.09980118320923693
7.750016125,1.1003974923611026,2.3726211811740914,-0.12593090764003684
7.759942125,0.8683944151544538,2.6973803817972337,-0.14522261204185144
7.769868125,0.6342948285285379,3.0009183010160685,-0.15730958665804576
7.779794125,0.40071507815363744,3.280053368354857,-0.16193567867756128
7.789720125,0.17022487717905427,3.531886050058513,-0.15896167526673835
7.799646125,-0.05468300410249677,3.7538267386446957,-0.14836982476353303
7.809572125,-0.2716214658772679,3.943619222279204,-0.1302663920251994
7.819498125,-0.4783358883018992,4.099359586824033,-0.10488217785944766
7.829424125,-0.672728725375057,4.21951048442139,-0.0725709666709002
7.839350125,-0.8528816261374844,4.302910781543159,-0.03380590063953637
7.849276125,-1.0170748682882682,4.348780674739627,0.010826187171515926
7.859202125,-1.1638039325626137,4.356722432216551,0.06063241443300819
7.869128125,-1.2917930900829722,4.326716982329211,0.11482336580821902
7.879054125,-1.400005918729864,4.259116624657497,0.17252435043353587
7.888980125,-1.4876527075094588,4.154634184093211,0.232788234561511
7.898906125,-1.5541947488387284,4.014328961913176,0.2946096517008387
7.908832125,-1.5993455564928065,3.839589858765747,0.3569403623354991
7.918758125,-1.623069080924314,3.6321160517368694,0.41870550683510344
7.928684125,-1.625575024074082,3.393895600779278,0.4788204694296048
7.938610125,-1.6073113842124516,3.127182339797063,0.5362080499528088
7.948536125,-1.5689543897517655,2.8344713773395207,0.5898156259186426
7.958462125,-1.5113960101881532,2.5184734951366603,0.6386319825521779
7.968388125,-1.4357292611765275,2.182088693628913,0.6817034937153785
7.978313125,-1.3432315466064966,1.8283790953603127,0.7181493519531544
7.988239125,-1.235346300906601,1.4605413816026713,0.7471755696957431
7.998165125,-1.1136632084729223,1.0818789058896738,0.7680875038369126
8.008091125,-0.9798972845572407,0.6957736007925024,0.7803006901827941
8.018017125,-0.8358671046904788,0.3056577716815709,0.7833498107614484
8.027943125,-0.6834724693603916,-0.08501414614478274,0.7768956545673508
8.037869125,-0.5246717880991775,-0.4727938022363142,0.7607299706727463
8.047795125,-0.3614594623989738,-0.8542670583909605,0.7347781520333845
8.057721125,-0.19584353952249473,-1.2260819681421282,0.699099729006685
8.067647125,-0.0298238988967094,-1.5849765393897257,0.6538866931679025
8.077573125,0.13462878079699847,-1.9278061954073231,0.5994597131786596
8.087499125,0.2955930425319916,-2.2515708262979355,0.5362623437379433
8.097425125,0.4512154487414234,-2.5534412931081842,0.46485336533761645
8.107351125,0.5997279688323488,-2.830785211599637,0.38589742701367064
8.117277125,0.7394637971493689,-3.0811918042476494,0.3001541967291626
8.127203125,0.8688714741805733,-3.3024955702647194,0.20846625309185263
8.137129125,0.9865272200429417,-3.492798487981351,0.11174597535674063
8.147055125,1.091145429890759,-3.650490436330812,0.010961704362207204
8.156981125,1.1815873258001728,-3.7742675076503587,-0.09287654510804971
8.166907125,1.2568678076980022,-3.863147886764644,-0.19873153984164948
8.176833125,1.3161605935892646,-3.9164849919921463,-0.3055531786530229
8.186759125,1.358801780710482,-3.9339776075023165,-0.4122924816867173
8.196685125,1.384291987554572,-3.9156767747062164,-0.5179149893349448
8.206611125,1.3922972479921427,-3.8619892458430365,-0.6214133766637969
8.216537125,1.3826488238572745,-3.773677334567713,-0.7218191267775038
8.226463125,1.35534208582886,-3.651855031118884,-0.8182131391731015
8.236389125,1.310534589199857,-3.497980289826323,-0.9097351734929504
8.246315125,1.2485434446763994,-3.3138434471103864,-0.9955920480401311
8.256240125,1.1698420562476761,-3.101551786887339,-1.0750645313365794
8.266166125,1.075056268763821,-2.8635103331058365,-1.1475128864557154
8.276092125,0.9649599377334418,-2.602399011824735,-1.2123810507397625
8.286018125,0.8404699047760633,-2.321146384620871,-1.2691994561554354
8.295944125,0.7026403365797169,-2.022900208703805,-1.31758651808865
8.305869792,0.5526563651099236,-1.7109951253005424,-1.3572488439053862
8.315795792,0.39182695342238416,-1.388917816629158,-1.3879802371107102
8.325721792,0.22157690556099505,-1.0602700046984783,-1.4096595968296615
8.335647792,0.04343794105931685,-0.7287296942873727,-1.4222478334795452
8.345573792,-0.14096123596001778,-0.39801108865271945,-1.4257839383160669
8.355499792,-0.3299059275766884,-0.07182362877716877,-1.4203803563186437
8.365425792,-0.5216075274665593,0.24616937685238366,-1.4062178186597216
8.375351792,-0.7142167130350441,0.5523920565339512,-1.3835397930920414
8.385277792,-0.9058377319531601,0.8433967378300461,-1.3526467080698594
8.395203792,-1.094543745006243,1.1159036986028115,-1.3138900990668814
8.405129792,-1.2783931608566832,1.3668394481240058,-1.2676668133710507
8.415055792,-1.455446872346915,1.5933730942121942,-1.2144133933681742
8.424981792,-1.6237862791387867,1.7929503691504367,-1.1546007392915347
8.434907792,-1.7815319583168843,1.9633249063587757,-1.0887291319523
8.444833792,-1.9268628232873908,2.1025863822192785,-1.0173236750644499
8.454759792,-2.0580355918756505,2.2091851640205236,-0.9409301959945657
8.464685792,-2.173404366786571,2.281953136272351,-0.8601116232399353
8.474611792,-2.271440115206295,2.3201204135528783,-0.7754448384089468
8.484537792,-2.350749818918463,2.32332768783136,-0.6875179794179119
8.494463792,-2.4100950517696456,2.291634000698608,-0.5969281497223525
8.504389792,-2.4484097281105566,2.22551977509981,-0.5042794664222858
8.514315792,-2.46481675506691,2.1258849867086655,-0.4101813603300146
8.524241792,-2.458643314607288,1.9940424026804737,-0.31524702677481575
8.534167792,-2.429434499736116,1.8317058664089791,-0.22009191942922043
8.544092792,-2.376965033689992,1.6409736620866506,-0.12533218075075886
8.554018792,-2.3012488121247436,1.4243070524201553,-0.031582909292225854
8.563944792,-2.2025460257329565,1.1845041457481178,0.06054382688761746
8.573870792,-2.0813676438893043,0.92466931320388,0.15044131173710373
8.583796792,-1.9384770681018857,0.6481784404388659,0.23751090792657303
8.593722792,-1.774888796856017,0.3586403600476051,0.3211652464527933
8.603648792,-1.5918639806210573,0.05985486884241414,0.40083192169426357
8.613574792,-1.3909027868154473,-0.24423221256452174,0.47595771608210335
8.623500792,-1.1737335385468048,-0.5495764324022158,0.5460133562775205
8.633426792,-0.9422986372195998,-0.8520840043536748,0.6104987769686865
8.643352792,-0.69873732716116,-1.14766242180874,0.6689488407060888
8.653278792,-0.4453654098337805,-1.4322717695626739,0.720939434530497
8.663204792,-0.18465206547044083,-1.701976083122302,0.7660938379146622
8.673130792,0.08080600935119546,-1.9529940810718471,0.8040892324544133
8.683056792,0.348312888898061,-2.1817485776207795,0.8346632020890132
8.692982792,0.6151038204286338,-2.3849138725396073,0.8576200534825688
8.702908792,0.8783773821017603,-2.5594604166236485,0.8728367697548642
8.712834792,1.1353289906204909,-2.7026960652496936,0.8802683977703772
8.722760792,1.3831853101262326,-2.8123032630227365,0.8799526613523877
8.732686792,1.6192390775839087,-2.8863715507877505,0.8720135928310828
8.742612792,1.8408838313250822,-2.9234248527755877,0.8566639865194479
8.752538792,2.0456480096302756,-2.922443084522342,0.8342065018460134
8.762464792,2.2312278759642257,-2.882877717394472,0.8050332791725959
8.772390792,2.39551872741155,-2.8046610380003996,0.7696239728850925
8.782316792,2.536643854019451,-2.6882089461309833,0.7285421494684347
8.792242792,2.65298074069831,-2.534417240531301,0.6824300411208596
8.802168792,2.7431840419010687,-2.3446514466666972,0.6320016883820889
8.812094792,2.8062049138209293,-2.120730344230195,0.5780345482928901
8.822020792,2.841306358981545,-1.8649034535975733,0.5213596861801231
