Time (s),Acceleration x (m/s^2),Acceleration y (m/s^2),Acceleration z (m/s^2)
9.000590225,2.188488486732575e+68,-2.7523339254040515e+68,-8.511003477772653e+67
9.005366684,2.167368527382983e+68,-2.7253247220835537e+68,-8.434596484633931e+67
9.010143142,2.146450342045567e+68,-2.6985900417238135e+68,-8.35889218547737e+67
9.014919653,2.1257320051770838e+68,-2.672127008266117e+68,-8.283883659207637e+67
9.019696111,2.1052116093235615e+68,-2.6459327731590193e+68,-8.209564052243708e+67
9.024472621,2.0848872649728865e+68,-2.620004515161631e+68,-8.135926578008625e+67
9.02924908,2.0647571004090573e+68,-2.594339440148941e+68,-8.062964516418575e+67
9.034025538,2.0448192615680438e+68,-2.568934780919159e+68,-7.990671213371434e+67
9.038802048,2.0250719118951904e+68,-2.5437877970030384e+68,-7.919040080234958e+67
9.043578507,2.0055132322041056e+68,-2.5188957744751155e+68,-7.848064593334757e+67
9.048354965,1.986141420536962e+68,-2.494256025766805e+68,-7.777738293442279e+67
9.053131475,1.9669546920261464e+68,-2.4698658894812844e+68,-7.708054785263019e+67
9.057907934,1.9479512787572005e+68,-2.4457227302101053e+68,-7.639007736925144e+67
9.062684444,1.9291294296329908e+68,-2.4218239383514653e+68,-7.570590879468712e+67
9.067460903,1.9104874102390438e+68,-2.398166929930083e+68,-7.502798006335736e+67
9.072237361,1.8920235027099952e+68,-2.374749146418608e+68,-7.435622972861281e+67
9.077013871,1.8737360055970996e+68,-2.3515680545605033e+68,-7.369059695765831e+67
9.08179033,1.8556232337367389e+68,-2.328621146194348e+68,-7.303102152649157e+67
9.086566788,1.8376835181198742e+68,-2.3059059380795015e+68,-7.237744381485856e+67
9.091343298,1.8199152057623858e+68,-2.2834199717230603e+68,-7.172980480122722e+67
9.096119757,1.8023166595762493e+68,-2.2611608132080323e+68,-7.108804605778012e+67
9.100896267,1.7848862582415072e+68,-2.2391260530226425e+68,-7.045210974542666e+67
9.105672725,1.7676223960789837e+68,-2.217313305890698e+68,-6.982193860883552e+67
9.110449184,1.7505234829236872e+68,-2.195720210602936e+68,-6.919747597148791e+67
9.115225694,1.7335879439988428e+68,-2.174344429849286e+68,-6.857866573075274e+67
9.120002153,1.7168142197904788e+68,-2.1531836500519713e+68,-6.79654523529847e+67
9.124778611,1.70020076592249e+68,-2.1322355811993788e+68,-6.735778086864667e+67
9.129555121,1.683746053032105e+68,-2.1114979566806155e+68,-6.67555968674575e+67
9.13433158,1.6674485666456967e+68,-2.0909685331206943e+68,-6.615884649356709e+67
9.139108038,1.6513068070548764e+68,-2.0706450902162839e+68,-6.556747644076098e+67
9.143884548,1.635319289192827e+68,-2.0505254305719471e+68,-6.498143394769689e+67
9.148661007,1.619484542510843e+68,-2.0306073795367894e+68,-6.440066679317553e+67
9.153437517,1.6038011108550474e+68,-2.0108887850414369e+68,-6.382512329144745e+67
9.158213975,1.5882675523432497e+68,-1.9913675174352609e+68,-6.325475228755749e+67
9.162990434,1.5728824392419402e+68,-1.9720414693237648e+68,-6.268950315272831e+67
9.167766944,1.5576443578434202e+68,-1.9529085554060704e+68,-6.212932577978412e+67
9.172543403,1.5425519083430646e+68,-1.9339667123124639e+68,-6.157417057861533e+67
9.177319861,1.5276037047167144e+68,-1.9152138984419705e+68,-6.102398847168457e+67
9.182096371,1.5127983745981785e+68,-1.8966480937999292e+68,-6.047873088957427e+67
9.18687283,1.4981345591568242e+68,-1.878267299835546e+68,-5.993834976657584e+67
9.19164934,1.4836109129752528e+68,-1.8600695392794018e+68,-5.940279753632019e+67
9.196425798,1.4692261039270797e+68,-1.842052855980891e+68,-5.887202712744907e+67
9.201202257,1.4549788130548458e+68,-1.8242153147455734e+68,-5.834599195932576e+67
9.205978767,1.4408677344480792e+68,-1.806555001172432e+68,-5.782464593778376e+67
9.210755225,1.4268915751215305e+68,-1.789070021491017e+68,-5.730794345091214e+67
9.215531684,1.4130490548936e+68,-1.771758502398478e+68,-5.679583936487581e+67
9.220308194,1.3993389062649811e+68,-1.7546185908964875e+68,-5.628828901976895e+67
9.225084653,1.3857598742975517e+68,-1.7376484541280873e+68,-5.578524822549961e+67
9.229861111,1.3723107164935242e+68,-1.7208462792144635e+68,-5.528667325770412e+67
9.234637621,1.3589902026748835e+68,-1.7042102730916685e+68,-5.479252085368942e+67
9.23941408,1.3457971148631349e+68,-1.6877386623472996e+68,-5.430274820840161e+67
9.24419059,1.332730247159385e+68,-1.671429693057156e+68,-5.3817312970419615e+67
9.248967048,1.3197884056247722e+68,-1.6552816306218993e+68,-5.3336173237972265e+67
9.253743507,1.3069704081612715e+68,-1.6392927596037395e+68,-5.285928755497692e+67
9.258520017,1.294275084392897e+68,-1.6234613835631593e+68,-5.238661490709805e+67
9.263296475,1.281701275547326e+68,-1.6077858248956935e+68,-5.1918114717824044e+67
9.268072934,1.2692478343379594e+68,-1.5922644246687738e+68,-5.145374684456093e+67
9.272849444,1.2569136248464482e+68,-1.5768955424586502e+68,-5.099347157474209e+67
9.277625903,1.2446975224057314e+68,-1.561677556187395e+68,-5.053724962195294e+67
9.282402361,1.2325984134836206e+68,-1.546608861959998e+68,-5.0085042122069447e+67
9.287178871,1.2206151955669808e+68,-1.5316878739015776e+68,-4.963681062940946e+67
9.29195533,1.2087467770465375e+68,-1.516913023994745e+68,-4.919251711289637e+67
9.29673184,1.1969920771023387e+68,-1.5022827619171416e+68,-4.875212395223547e+67
9.301508298,1.1853500255898977e+68,-1.4877955548791923e+68,-4.831559393410338e+67
9.306284757,1.1738195629270436e+68,-1.4734498874621227e+68,-4.788289024835125e+67
9.311061267,1.1623996399814987e+68,-1.459244261456294e+68,-4.7453976484221984e+67
9.315837725,1.1510892179592046e+68,-1.4451771956998926e+68,-4.702881662658199e+67
9.320614184,1.1398872682934144e+68,-1.431247225917999e+68,-4.6607375052167885e+67
9.325390694,1.1287927725345743e+68,-1.4174529045620606e+68,-4.6189616525848373e+67
9.330167153,1.1178047222410139e+68,-1.4037928006498016e+68,-4.5775506196901566e+67
9.334943663,1.1069221188704686e+68,-1.3902654996056138e+68,-4.536500959530788e+67
9.339720121,1.0961439736724488e+68,-1.3768696031014658e+68,-4.4958092628058533e+67
9.34449658,1.085469307581472e+68,-1.3636037288983688e+68,-4.455472157547944e+67
9.34927309,1.0748971511111734e+68,-1.3504665106884163e+68,-4.415486308757021e+67
9.354049548,1.0644265442493107e+68,-1.337456597937412e+68,-4.3758484180357665e+67
9.358826007,1.0540565363536783e+68,-1.3245726557281127e+68,-4.336555223226323e+67
9.363602517,1.0437861860489439e+68,-1.3118133646041213e+68,-4.297603498048347e+67
9.368378975,1.0336145611244096e+68,-1.2991774204144564e+68,-4.258990051738361e+67
9.373155434,1.0235407384327019e+68,-1.2866635341588303e+68,-4.220711728690377e+67
9.377931944,1.0135638037894017e+68,-1.2742704318336403e+68,-4.1827654080978437e+67
9.382708403,1.0036828518736215e+68,-1.2619968542786795e+68,-4.1451480035969216e+67
9.387484913,9.938969861295364e+67,-1.249841557024561e+68,-4.107856462911108e+67
9.392261371,9.84205318668863e+67,-1.237803310140846e+68,-4.0708877674972164e+67
9.39703783,9.746069701742767e+67,-1.2258808980848744e+68,-4.0342389321927244e+67
9.40181434,9.651010698037552e+67,-1.2140731195512916e+68,-3.997907004864517e+67
9.406590798,9.556867550958482e+67,-1.2023787873222633e+68,-3.96188906605907e+67
9.411367257,9.46363171875865e+67,-1.1907967281183797e+68,-3.926182228654133e+67
9.416143767,9.371294741629769e+67,-1.1793257824502504e+68,-3.890783637511974e+67
9.420920225,9.279848240782282e+67,-1.1679648044707928e+68,-3.855690469134238e+67
9.425696736,9.189283917534541e+67,-1.1567126618282161e+68,-3.8208999313184587e+67
9.430473194,9.099593552411163e+67,-1.145568235519689e+68,-3.786409262816293e+67
9.435249653,9.010769004250716e+67,-1.1345304197456778e+68,-3.7522157329935095e+67
9.440026163,8.922802209322831e+67,-1.1235981217649437e+68,-3.7183166414917534e+67
9.444802621,8.835685180454791e+67,-1.1127702617501896e+68,-3.6847093178921014e+67
9.44957908,8.749410006167667e+67,-1.1020457726443422e+68,-3.651391121380403e+67
9.45435559,8.663968849822167e+67,-1.0914236000174585e+68,-3.618359440414394e+67
9.459132048,8.579353948774285e+67,-1.0809027019242493e+68,-3.585611692392591e+67
9.463908507,8.495557613540698e+67,-1.0704820487622252e+68,-3.5531453233250005e+67
9.468685017,8.412572226973887e+67,-1.060160623130473e+68,-3.520957807505664e+67
9.473461475,8.330390243446929e+67,-1.0499374196890797e+68,-3.489046647187032e+67
9.478237986,8.249004188048005e+67,-1.0398114450192114e+68,-3.457409372256117e+67
9.483014444,8.168406655784627e+67,-1.029781717483856e+68,-3.426043539912435e+67
9.487790903,8.088590310797615e+67,-1.0198472670892492e+68,-3.3949467343477503e+67
9.492567413,8.009547885584828e+67,-1.0100071353469913e+68,-3.3641165664276433e+67
9.497343871,7.931272180234717e+67,-1.0002603751368511e+68,-3.333550673374947e+67
9.50212033,7.85375606166978e+67,-9.906060505702644e+67,-3.303246718455105e+67
9.50689684,7.776992462899957e+67,-9.81043236854532e+67,-3.2732023906635065e+67
9.511673298,7.70097438228596e+67,-9.715710201577288e+67,-3.243415404414827e+67
9.516449757,7.625694882812526e+67,-9.621884974743288e+67,-3.2138834992344344e+67
9.521226267,7.551147091371556e+67,-9.528947764915609e+67,-3.1846044394518836e+67
9.526002725,7.477324198055073e+67,-9.436889754565116e+67,-3.1555760138965106e+67
9.530779236,7.404219455457904e+67,-9.345702230439918e+67,-3.1267960355951386e+67
9.535555694,7.331826177989923e+67,-9.255376582251787e+67,-3.098262341471938e+67
9.540332153,7.260137741197709e+67,-9.165904301370461e+67,-3.069972792050476e+67
9.545108663,7.189147581095442e+67,-9.077276979525966e+67,-3.0419252711579786e+67
9.549885121,7.118849193504752e+67,-8.989486307519051e+67,-3.0141176856318344e+67
9.55466158,7.049236133403299e+67,-8.902524073939868e+67,-2.9865479650283855e+67
9.55943809,6.980302014281895e+67,-8.816382163895032e+67,-2.959214061334053e+67
9.564214548,6.912040507509965e+67,-8.731052557743216e+67,-2.9321139486788276e+67
9.568991007,6.844445341709193e+67,-8.646527329839446e+67,-2.905245623052168e+67
9.573767517,6.777510302135252e+67,-8.562798647288261e+67,-2.8786071020213194e+67
9.578543975,6.711229230067461e+67,-8.479858768705984e+67,-2.852196424452045e+67
9.583320486,6.64559602220632e+67,-8.397700042992263e+67,-2.826011650231755e+67
9.588096944,6.580604630078824e+67,-8.316314908111008e+67,-2.8000508599950263e+67
9.592873403,6.516249059451472e+67,-8.235695889880864e+67,-2.7743121548514835e+67
9.597649913,6.452523369750909e+67,-8.155835600775358e+67,-2.7487936561160263e+67
9.602426371,6.389421673492007e+67,-8.07672673873288e+67,-2.723493505041359e+67
9.60720283,6.326938135713271e+67,-7.998362085976584e+67,-2.6984098625527844e+67
9.61197934,6.265066973419413e+67,-7.920734507844309e+67,-2.6735409089852178e+67
9.616755798,6.203802455031038e+67,-7.843836951628701e+67,-2.648884843822428e+67
9.621532257,6.143138899841428e+67,-7.767662445427676e+67,-2.624439885438504e+67
9.626308767,6.083070677480403e+67,-7.692204097005388e+67,-2.600204270841551e+67
9.631085225,6.023592207385249e+67,-7.617455092663864e+67,-2.576176255419628e+67
9.635861736,5.964697958278749e+67,-7.543408696125515e+67,-2.5523541126889228e+67
9.640638194,5.906382447654342e+67,-7.470058247426712e+67,-2.5287361340441574e+67
9.645414653,5.848640241268385e+67,-7.397397161822611e+67,-2.5053206285112304e+67
9.650191163,5.791465952639502e+67,-7.325418928703446e+67,-2.4821059225021087e+67
9.654967621,5.734854242554924e+67,-7.25411711052243e+67,-2.4590903595719826e+67
9.65974408,5.678799818583797e+67,-7.183485341735394e+67,-2.4362723001786946e+67
9.66452059,5.623297434597372e+67,-7.113517327752241e+67,-2.4136501214444676e+67
9.669297048,5.568341890296025e+67,-7.044206843900275e+67,-2.391222216919963e+67
9.674073507,5.513928030743118e+67,-6.975547734399417e+67,-2.36898699635069e+67
9.678850017,5.460050745905698e+67,-6.907533911349371e+67,-2.3469428854458e+67
9.683626475,5.406704970201995e+67,-6.840159353728752e+67,-2.3250883256492988e+67
9.688402934,5.353885682055765e+67,-6.773418106406203e+67,-2.3034217739137147e+67
9.693179444,5.301587903457481e+67,-6.707304279163468e+67,-2.2819417024762577e+67
9.697955903,5.2498066995323836e+67,-6.641812045730371e+67,-2.2606465986375035e+67
9.702732413,5.1985371781153686e+67,-6.576935642831652e+67,-2.2395349645426367e+67
9.707508871,5.14777448933262e+67,-6.512669369245647e+67,-2.2186053169652686e+67
9.71228533,5.09751382518991e+67,-6.449007584874786e+67,-2.1978561870938432e+67
9.71706184,5.047750419167478e+67,-6.385944709827904e+67,-2.1772861203206484e+67
9.721838298,4.998479545821401e+67,-6.323475223514498e+67,-2.1568936760334444e+67
9.726614757,4.9496965203913757e+67,-6.26159366375112e+67,-2.136677427409729e+67
9.731391267,4.901396698414877e+67,-6.200294625880086e+67,-2.116635961213669e+67
9.736167725,4.853575475347671e+67,-6.139572761900682e+67,-2.096767877595728e+67
9.740944184,4.806228286190661e+67,-6.079422779613053e+67,-2.077071789895004e+67
9.745720694,4.759350605123024e+67,-6.01983944177491e+67,-2.0575463244442802e+67
9.750497153,4.7129379451415686e+67,-5.960817565271191e+67,-2.0381901203777847e+67
9.755273663,4.666985857706271e+67,-5.90235202029676e+67,-2.0190018294416744e+67
9.760050121,4.6214899323919524e+67,-5.844437729552229e+67,-1.999980115807254e+67
9.76482658,4.5764457965460586e+67,-5.787069667452974e+67,-1.9811236558869358e+67
9.76960309,4.5318491149524826e+67,-5.730242859351416e+67,-1.9624311381529214e+67
9.774379548,4.48769558950137e+67,-5.673952380772686e+67,-1.9439012629585795e+67
9.779156007,4.4439809588648043e+67,-5.618193356663697e+67,-1.925532742362504e+67
9.783932517,4.4007009981782776e+67,-5.562960960655738e+67,-1.9073242999552293e+67
9.788708975,4.3578515187278076e+67,-5.50825041434059e+67,-1.8892746706885885e+67
9.793485434,4.315428367642572e+67,-5.454056986560181e+67,-1.8713826007076884e+67
9.798261944,4.273427427592931e+67,-5.400375992709799e+67,-1.8536468471854785e+67
9.803038403,4.231844616493705e+67,-5.3472027940548365e+67,-1.8360661781598825e+67
9.807814861,4.190675887212586e+67,-5.294532797061001e+67,-1.8186393723734443e+67
9.812591371,4.149917227283532e+67,-5.242361452737922e+67,-1.8013652191154477e+67
9.81736783,4.109564658625017e+67,-5.19068425599606e+67,-1.784242518066485e+67
9.822144288,4.0696142372630184e+67,-5.139496745016805e+67,-1.7672700791454493e+67
9.826920798,4.030062053058639e+67,-5.0887945006356975e+67,-1.7504467223589245e+67
9.831697257,3.9909042294402907e+67,-5.0385731457387056e+67,-1.733771277652951e+67
9.836473767,3.9521369231403675e+67,-4.988828344671534e+67,-1.7172425847671624e+67
9.841250225,3.9137563239363545e+67,-4.939555802661883e+67,-1.7008594930912655e+67
9.846026684,3.8757586543963095e+67,-4.8907512652545047e+67,-1.6846208615238415e+67
9.850803194,3.8381401696286537e+67,-4.8424105177588504e+67,-1.6685255583334533e+67
9.855579653,3.800897157036178e+67,-4.7945293847091085e+67,-1.6525724610220404e+67
9.860356111,3.764025936074139e+67,-4.747103729336421e+67,-1.6367604561905813e+67
9.865132621,3.7275228580122794e+67,-4.700129453053055e+67,-1.621088439407002e+67
9.86990908,3.691384305700604e+67,-4.65360249494828e+67,-1.605555315076314e+67
9.87468559,3.6556066933386876e+67,-4.6075188312956546e+67,-1.5901599963129446e+67
9.879462048,3.6201864662483417e+67,-4.5618744750714404e+67,-1.5749014048152413e+67
9.884238507,3.585120100649476e+67,-4.5166654754838534e+67,-1.5597784707421307e+67
9.889015017,3.5504041034389776e+67,-4.4718879175128454e+67,-1.5447901325919304e+67
9.893791475,3.516035011972439e+67,-4.4275379214601206e+67,-1.5299353370833093e+67
9.898567934,3.482009393848565e+67,-4.383611642509084e+67,-1.5152130390384042e+67
9.903344444,3.4483238466961313e+67,-4.340105270294425e+67,-1.5006222012681002e+67
9.908120903,3.414974997963355e+67,-4.297015028481086e+67,-1.4861617944594714e+67
9.912897361,3.381959504709542e+67,-4.2543371743523814e+67,-1.471830797065386e+67
9.917673871,3.349274053398867e+67,-4.2120679984070404e+67,-1.4576281951962792e+67
9.92245033,3.3169153596961784e+67,-4.1702038239649564e+67,-1.4435529825140962e+67
9.927226788,3.284880168264702e+67,-4.1287410067814686e+67,-1.429604160128419e+67
9.932003298,3.25316525256555e+67,-4.0876759346699604e+67,-1.415780736494777e+67
9.936779757,3.221767414658949e+67,-4.047005027132595e+67,-1.4020817273151553e+67
9.941556215,3.190683485007139e+67,-4.006724734998982e+67,-1.3885061554407028e+67
9.946332725,3.1599103222788797e+67,-3.966831540072554e+67,-1.3750530507766474e+67
9.951109184,3.1294448131554735e+67,-3.9273219547844717e+67,-1.3617214501894213e+67
9.955885694,3.099283872138223e+67,-3.8881925218548983e+67,-1.348510397415986e+67
9.960662153,3.06942444135727e+67,-3.849439813961436e+67,-1.335418942975359e+67
9.965438611,3.0398634903817886e+67,-3.811060433414505e+67,-1.3224461440823412e+67
9.970215121,3.0105980160315244e+67,-3.7730510118394445e+67,-1.3095910645634518e+67
9.97499158,2.9816250421896826e+67,-3.735408209865117e+67,-1.2968527747750602e+67
9.979768038,2.952941619617127e+67,-3.698128716818806e+67,-1.2842303515237142e+67
9.984544548,2.924544825767877e+67,-3.661209250427251e+67,-1.271722877988655e+67
9.989321007,2.8964317646058743e+67,-3.6246465565236516e+67,-1.2593294436465226e+67
9.994097465,2.868599566423013e+67,-3.5884374087605286e+67,-1.2470491441982358e+67
9.998873975,2.8410453876584304e+67,-3.5525786083282935e+67,-1.2348810814980204e+67
10.00365043,2.813766410719021e+67,-3.517066983679366e+67,-1.2228243634845407e+67
10.00842689,2.7867598438011574e+67,-3.48189939025769e+67,-1.2108781041140894e+67
10.0132034,2.760022920713546e+67,-3.447072710233495e+67,-1.1990414232957911e+67
10.01797986,2.733552900701177e+67,-3.4125838522431644e+67,-1.187313446828777e+67
10.02275632,2.7073470682703376e+67,-3.3784297511340974e+67,-1.175693306341293e+67
10.02753283,2.6814027330146528e+67,-3.344607367714444e+67,-1.1641801392317038e+67
10.03230929,2.655717229442151e+67,-3.311113688507648e+67,-1.15277308861135e+67
10.03708575,2.6302879168033222e+67,-3.2779457255117184e+67,-1.1414713032492189e+67
10.04186226,2.6051121789201316e+67,-3.245100515963097e+67,-1.130273937518387e+67
10.04663872,2.5801874240159585e+67,-3.2125751221050135e+67,-1.1191801513441936e+67
10.05141523,2.5555110845464305e+67,-3.180366630960199e+67,-1.1081891101541026e+67
10.05619168,2.5310806170311193e+67,-3.148472154107833e+67,-1.0972999848292125e+67
10.06096814,2.5068935018860773e+67,-3.11688882746461e+67,-1.0865119516573735e+67
10.06574465,2.4829472432571907e+67,-3.085613811069785e+67,-1.0758241922878693e+67
10.07052111,2.4592393688543228e+67,-3.054644288874096e+67,-1.065235893687609e+67
10.07529762,2.4357674297862285e+67,-3.0239774685324537e+67,-1.0547462480987727e+67
10.08007408,2.4125290003962464e+67,-2.9936105812003226e+67,-1.0443544529978568e+67
10.08485054,2.3895216780987817e+67,-2.963540881333669e+67,-1.0340597110560653e+67
10.089627,2.3667430832165915e+67,-2.9337656464923904e+67,-1.023861230100998e+67
10.09440351,2.344190858818876e+67,-2.904282177147136e+67,-1.0137582230795826e+67
10.09917997,2.321862670560163e+67,-2.8750877964894237e+67,-1.0037499080221936e+67
10.10395648,2.2997562065199646e+67,-2.84617985024497e+67,-9.938355080079069e+66
10.10873293,2.2778691770431728e+67,-2.8175557064901295e+67,-9.840142511308407e+66
10.11350939,2.2561993145811655e+67,-2.7892127554713326e+67,-9.742853704675402e+66
10.11828585,2.2347443735335802e+67,-2.761148409427423e+67,-9.646481040453539e+66
10.12306236,2.2135021300907284e+67,-2.733360102414796e+67,-9.551016948117588e+66
10.12783882,2.1924703820766438e+67,-2.705845290135262e+67,-9.456453906045928e+66
10.13261533,2.171646948792773e+67,-2.6786014497665677e+67,-9.362784441231623e+66
10.13739179,2.1510296708623207e+67,-2.6516260797955066e+67,-9.270001129001846e+66
10.14216825,2.1306164100752468e+67,-2.624916699853555e+67,-9.178096592745316e+66
10.14694476,2.110405049233897e+67,-2.598470850554938e+67,-9.087063503647426e+66
10.15172122,2.0903934919992557e+67,-2.5722860933370495e+67,-8.99689458043269e+66
10.15649773,2.0705796627378095e+67,-2.5463600103031417e+67,-8.907582589114245e+66
10.16127418,2.0509615063690175e+67,-2.520690204067188e+67,-8.819120342750064e+66
10.16605064,2.0315369882134083e+67,-2.4952742976008208e+67,-8.73150070120555e+66
