Time (s),Acceleration x (m/s^2),Acceleration y (m/s^2),Acceleration z (m/s^2)
9.004632072,-0.1594019156561381,0.8737805005683515,-0.2857752680764174
9.009632105,-0.19837473374830003,1.0170070952470187,-0.20140176512479047
9.014632138,-0.23506047039480835,1.1598371201155955,-0.1185275411535567
9.019632138,-0.2690125926290668,1.3007616946755505,-0.037962333402237945
9.024632138,-0.29983927534360977,1.4383275810588674,0.03949131837754042
9.029632104,-0.32721352169961093,1.5711636697514646,0.11304693176504223
9.034632104,-0.3508821872375987,1.6980048896930988,0.18194355228366457
9.039632104,-0.37067365901418103,1.8177129480139427,0.24545579921327335
9.044632137,-0.38650395304813995,1.9292933917122626,0.30290443536183814
9.049632137,-0.39838100839029433,2.031908583539178,0.3536673832539495
9.05463147,-0.4064069775134861,2.124886296849786,0.3971910716520663
9.059631436,-0.4107783438463863,2.207723759444384,0.43300194798862546
9.064630902,-0.4117837393378058,2.2800871133019696,0.46071793876849204
9.069629968,-0.4097993864542283,2.3418064012294155,0.4800595861075824
9.074629068,-0.4052821472128803,2.3928663353488595,0.4908605387519376
9.079628401,-0.3987602241364701,2.433393237324241,0.4930770342765947
9.084627534,-0.3908216223883619,2.4636386584124015,0.4867959793469587
9.089626667,-0.38210054755373096,2.4839602830746528,0.4722412204161795
9.0946267,-0.37326197894758145,2.4948007897080915,0.44977760158108526
9.0996267,-0.364984722978213,2.496665384813852,0.41991243251569405
9.1046267,-0.35794331269901275,2.490098743141706,0.3832940390305037
9.109626666,-0.35278917482739935,2.475662078395486,0.3407071418081659
9.114626666,-0.3501315304233764,2.45391104086795,0.2930649034437263
9.119626666,-0.3505185266539471,2.4253750943994987,0.2413975961324831
9.124625799,-0.3544191121846593,2.390538969237753,0.18683796579818648
9.129625799,-0.36220616710206116,2.349826722362785,0.1306034947089186
9.134625799,-0.3741413814650269,2.303588864007447,0.0739758847760951
9.139625799,-0.3903623477783828,2.2520929288012748,0.018278190260699215
9.144625799,-0.4108722951254093,2.1955177817782094,-0.03514988388946876
9.149626465,-0.4355328482786518,2.133951852611565,-0.08497793740226937
9.154626431,-0.46406014373771387,2.0673953854257867,-0.12991146492547875
9.159626431,-0.49602457460588745,1.9957666771076763,-0.1687184520477687
9.164626431,-0.5308543653175474,1.9189121566515146,-0.20025536351916381
9.169626464,-0.5678430939945747,1.8366200359309495,-0.2234919446880973
9.174626464,-0.6061611845971554,1.7486371436502515,-0.23753430070794496
9.179626464,-0.6448712845581593,1.6546884441544085,-0.2416457606800778
9.18462643,-0.6829473290673294,1.5544986451767275,-0.23526507004995856
9.18962643,-0.7192969743308093,1.4478152160425832,-0.21802148516719422
9.19462643,-0.7527869634411987,1.3344320719840888,-0.18974637558283072
9.199626463,-0.7822708750702941,1.2142131325298287,-0.15048098168351984
9.204627163,-0.8066186023114861,1.087114934482124,-0.10048003554690796
9.209627163,-0.8247468213039418,0.9532074755675067,-0.04021103476580151
9.214627663,-0.835649640437321,0.8126924862197358,0.029650939559634135
9.219628563,-0.8384285739102579,0.6659183760638338,0.10823285439335374
9.224629463,-0.832320960860979,0.5133911792117034,0.1944776787271133
9.229630129,-0.8167259556345752,0.355780927744419,0.2871624132981948
9.234630995,-0.7912272476543114,0.19392301358563954,0.38491983651143974
9.239631895,-0.7556117310455654,0.0288142519224647,0.48626350369605414
9.244631895,-0.7098834332827774,-0.13839647009696737,0.5896154456096311
9.249631928,-0.6542721262918918,-0.3064228928355357,0.6933359365562425
9.254631928,-0.5892361797911531,-0.4738611762848172,0.795754647585692
9.259631928,-0.5154593720608731,-0.6392143411079275,0.8952024710014346
9.264631894,-0.43384154428440297,-0.8009207354868441,0.9900433014125956
9.26963186,-0.34548316738853757,-0.9573857432317233,1.0787050841689392
9.274632726,-0.25166408111324,-1.107015814705294,1.1597094886622052
9.279632726,-0.15381685900174327,-1.2482538038485438,1.231699624152927
9.284632759,-0.053495442950950316,-1.3796145370423545,1.293465282038744
9.289632792,0.047660132538069874,-1.4997195245968102,1.3439652552400676
9.294632825,0.14796195366391413,-1.607329752985819,1.382346350658582
9.299632825,0.24571428710136092,-1.701375563568472,1.4079587762737564
9.304632825,0.33925432028142927,-1.7809827276691728,1.4203676535881105
9.309632791,0.4269923906855487,-1.8454939627006208,1.4193604801557356
9.314632791,0.5074505372231868,-1.8944852921629218,1.4049504437720814
9.319632791,0.5792982767662046,-1.9277768258918693,1.3773755650749855
9.324632824,0.6413846160668044,-1.9454377177560178,1.3370937144205335
9.329632857,0.6927654440987547,-1.9477852378666527,1.284773609916563
9.334632857,0.7327256039851191,-1.9353780671555805,1.2212819570576228
9.339632823,0.7607951110875517,-1.9090040768652963,1.1476669383253506
9.344632789,0.7767591600193552,-1.869662989566364,1.0651383049138625
9.349632755,0.7806617434708207,-1.8185444306230063,0.975044363809718
9.354632721,0.7728028842232884,-1.7570019711611264,0.8788461942701136
9.359632721,0.7537296536022197,-1.6865238382759282,0.7780894715600901
9.364632754,0.7242213111671829,-1.608701027705417,0.6743743244080147
9.369632787,0.6852690480830321,-1.5251935990206915,0.5693237047843968
9.37463282,0.6380509460529601,-1.4376959619873826,0.4645508011876558
9.37963282,0.5839028709582942,-1.3479019726861035,0.36162607675826086
9.38463282,0.5242861034182278,-1.257470647832595,0.2620445593022049
9.389632786,0.460752567155298,-1.1679932759533105,0.16719405005951582
9.394632786,0.3949085507442896,-1.080962656227344,0.0783249499849569
9.399632786,0.32837782969616325,-0.9977451318183229,-0.0034775756991934138
9.404632819,0.2627650847959772,-0.9195560068292279,-0.0773183645822064
9.409632819,0.1996204793883725,-0.8474388481454826,-0.14251323275035727
9.414632819,0.1404062018294845,-0.7822490798082727,-0.19860546409579619
9.419632819,0.08646569909085414,-0.7246421822703676,-0.2453771714838804
9.424632819,0.038996226547298056,-0.6750667142110721,-0.28285496894443185
9.429632819,-0.0009747753530937326,-0.6337622802862402,-0.3113095033079818
9.434632785,-0.03260908546452845,-0.6007624719830544,-0.33124853084854866
9.439632785,-0.05527261077516082,-0.5759027074924444,-0.34340338885194244
9.444632785,-0.06854563150478986,-0.5588327874042031,-0.3487089023322628
9.449632818,-0.07222831494648559,-0.5490338648878585,-0.34827697906695837
9.454632851,-0.06634152421673517,-0.5458394035347817,-0.34336437523548774
9.459632851,-0.051123034779317594,-0.5484595682068695,-0.3353353495724909
9.464632817,-0.02701935016086838,-0.5560083716701407,-0.3256201538982607
9.469632783,0.005326622464450575,-0.5675327913376703,-0.31567051814151065
9.474632783,0.045091716493740934,-0.5820429848967127,-0.30691346364876054
9.479632783,0.09129209903543137,-0.598542679012127,-0.3007049056870051
9.484632816,0.1428058992060672,-0.6160587887992699,-0.29828457339761805
9.489632816,0.19839841998311095,-0.6336693527350802,-0.3007337758867657
9.494632816,0.25674944545720857,-0.6505289401333645,-0.30893747432145047
9.499632816,0.31648211631277023,-0.665890803517026,-0.32355198514468464
9.504632816,0.37619280379168485,-0.6791251986464352,-0.3449794475386711
9.509632816,0.4344813702834939,-0.6897334690068521,-0.37334995145027067
9.514632782,0.489981171764849,-0.697357674643991,-0.4085119548018608
9.519632782,0.5413881432314483,-0.7017857221314392,-0.45003133371434156
9.524632782,0.5874883192809403,-0.702952110588752,-0.49719911996498495
9.529632815,0.6271831789655665,-0.7009345403422245,-0.5490476958282232
9.534632815,0.6595122629664906,-0.6959467331563621,-0.6043749468290776
9.539632815,0.6836725854474069,-0.6883278868052072,-0.6617756261044488
9.544632781,0.6990344462821259,-0.6785292356208105,-0.7196789678198827
9.549632081,0.7051533376267892,-0.6670982176317581,-0.7763914080969642
9.554631381,0.7017777299837534,-0.6546607631694581,-0.8301431351219454
9.559630714,0.6888526156354289,-0.6419022234183326,-0.879137098322128
9.564630747,0.6665187803021702,-0.6295474527846102,-0.9215990598907895
9.56963078,0.6351078660117077,-0.6183405471866162,-0.9558272681105545
9.574630813,0.5951333785998534,-0.6090247212947089,-0.9802403668079825
9.579630846,0.5472778809110407,-0.6023227805149055,-0.9934222245556792
9.584630846,0.49237669603243545,-0.5989186073029302,-0.994162467562064
9.589630812,0.43139852186027067,-0.5994400362617611,-0.9814916296221509
9.594630778,0.365423427052088,-0.6044434396482787,-0.9547099900492144
9.599630778,0.295618756998381,-0.6144002864176832,-0.9134093548356975
9.604630778,0.2232135244532514,-0.6296858758444107,-0.8574872442215288
9.609630811,0.14947189014353285,-0.6505703828163657,-0.7871531753170062
9.614630811,0.07566635188862897,-0.6772122878000507,-0.7029269626152687
9.619630811,0.003051255844346908,-0.709654202355511,-0.6056291918209704
9.624630777,-0.0671627791028074,-0.7478210435569393,-0.4963642432098551
9.629630743,-0.13383297204763028,-0.7915204604309591,-0.3764964409835802
9.634630709,-0.19590652798012662,-0.8404453748168438,-0.24762007870387687
9.639630709,-0.25244038909075533,-0.8941784691507634,-0.11152421504670537
9.644630742,-0.30261822432704905,-0.952198434354692,0.02984675152026469
9.649630775,-0.3457643605451386,-1.0138877806349207,0.17443563559593178
9.654630808,-0.3813544249167823,-1.078542010241715,0.3201169963682907
9.659630808,-0.409022533646888,-1.1453799517437437,0.46474247381590633
9.664630808,-0.42856492992570816,-1.2135550579995988,0.6061857612375459
9.669630774,-0.4399400473757117,-1.2821674732846886,0.7423860828158214
9.674630774,-0.44326505360191604,-1.3502766787125333,0.8713891146610547
9.679630774,-0.4388090072300277,-1.4169145300205084,0.9913843914362083
9.684630807,-0.4269828355909755,-1.4810985086700175,1.1007383773790156
9.689630807,-0.4083264067370461,-1.5418450156249157,1.1980225449239477
9.694630807,-0.3834930299640401,-1.5981825461996255,1.282035985446478
9.699631473,-0.3532317753500515,-1.6491645938228952,1.351822261189925
9.704632139,-0.31836805562274817,-1.6938821410027287,1.4066803829253367
9.709632805,-0.27978296208163406,-1.7314756074981017,1.4461699566456558
9.714632771,-0.23839188773985026,-1.7611461384697067,1.4701106812960671
9.719632737,-0.19512300037498992,-1.7821661290172477,1.4785764969952546
9.724632737,-0.15089613917614053,-1.7938888957075039,1.4718847785749745
9.729632737,-0.10660269543934293,-1.7957574188850587,1.4505810422613883
9.73463277,-0.0630869981201487,-1.7873120884884148,1.4154196855593846
9.73963277,-0.02112966052990488,-1.7681973869283674,1.3673413160897783
9.74463277,0.018566741490100284,-1.7381674325302048,1.3074472500622512
9.749632736,0.05538939200415174,-1.6970902853752925,1.2369717808268663
9.754632736,0.08882420053647361,-1.6449508861618012,1.1572528363397354
9.759632736,0.11846195928298542,-1.581852464503463,1.0697016619717499
9.764632769,0.1440017302264287,-1.5080162279703635,0.9757721783451734
9.769632769,0.16525156793261514,-1.4237791405849833,0.8769306666274324
9.774632769,0.18212673038582447,-1.3295896265545801,0.774626420808568
9.779632769,0.19464556089249258,-1.2260010895738436,0.6702639765706796
9.784632769,0.20292324506262846,-1.113663212869761,0.5651774811541751
9.789632769,0.20716366483410298,-0.993311093456913,0.4606077099500522
9.794632735,0.20764959203762842,-0.8657523607753476,0.35768216325886465
9.799632735,0.2047314891700799,-0.7318525298272257,0.2573985897297391
9.804632735,0.19881521288800186,-0.5925189347452159,0.16061218216380838
9.809632768,0.19034894222848317,-0.4486836710031282,0.06802658030702262
9.814632768,0.17980967459060185,-0.3012860343318518,-0.019811300169686356
9.819632768,0.167689644990281,-0.15125497633401824,-0.10251270585337947
9.824632734,0.15448302672181818,0.0005079002763936301,-0.1798449454096316
9.8296327,0.14067326402430058,0.1531443077139946,-0.25172602583520587
9.834632666,0.12672136823410832,0.3058537482040901,-0.31821635144842586
9.839632666,0.11305547521007045,0.4579061110447078,-0.3795078319057357
9.844632666,0.10006191155984116,0.6086520816904316,-0.43591073968703925
9.849632699,0.0880779516878861,0.7575311341283814,-0.4878386384350167
9.854632732,0.07738637103937891,0.9040769558512296,-0.5357916844673368
9.859632765,0.06821181884386454,1.0479202246109605,-0.5803385931959567
9.864632765,0.0607189533048861,1.188788716008236,-0.6220975642595256
9.869632765,0.055012210858801355,1.3265047720552405,-0.6617164764348138
9.874632731,0.051137023588189646,1.4609802070052855,-0.6998526962393017
9.879632731,0.04908225644115575,1.5922087734417014,-0.7371528883578188
9.884632731,0.048783608265264095,1.7202563636820527,-0.7742332628181042
9.889632764,0.050127707362856815,1.845249180028258,-0.8116607327272688
9.894632764,0.052956633110351335,1.967360168006198,-0.8499354781617737
9.899632764,0.05707261053313258,2.0867940620981007,-0.889475409824996
9.90463273,0.06224265517108996,2.2037714375358433,-0.9306029962019158
9.909632696,0.06820299056969566,2.318512192401367,-0.9735348584510607
9.914632662,0.07466311820865716,2.4312189021253223,-1.018374449808087
9.919632662,0.08130948694043466,2.542060493931043,-1.0651080268297324
9.924632695,0.08780878259744679,2.65115668161323,-1.113603997977955
9.929632728,0.09381093222781388,2.7585635821479837,-1.163615611043206
9.934632761,0.0989519822830209,2.864260908016048,-1.2147868227198493
9.939632761,0.10285705677912599,2.9681410964645036,-1.266661086742471
9.944632761,0.10514362415989056,3.0700007012283197,-1.3186927059545424
9.949632727,0.10542529874999754,3.1695343329191057,-1.3702603233015573
9.954632693,0.1033163756680084,3.266331389132791,-1.4206820813510206
9.959632693,0.09843724977984591,3.3598757617448336,-1.469231961629374
9.964632726,0.09042080373923742,3.4495486446913217,-1.5151568218832534
9.969632759,0.07891977251880429,3.5346344894521518,-1.5576936747524677
9.974632759,0.06361500823013296,3.6143300677248793,-1.596086785607784
9.979632759,0.044224486318130946,3.68775650460323,-1.6296042004999827
9.984632759,0.02051281891357195,3.7539740477878683,-1.657553339626827
9.989632759,-0.007699022381127743,3.811999247534958,-1.6792953045318462
9.994632759,-0.04052412226731969,3.8608241441728746,-1.69425755284966
9.999632725,-0.07800056107382111,3.899436995420904,-1.7019446047368552
10.00463272,-0.12008328523543153,3.926844020836309,-1.7019464748306052
10.00963273,-0.16663732140801965,3.942091593068851,-1.6939445832494502
10.01463249,-0.21743272902668262,3.94428826767275,-1.6777149910992595
10.01963249,-0.2721416421504076,3.9326260221039724,-1.6531289236687374
10.02463249,-0.3303376811490501,3.906400078609957,-1.6201506748065888
10.02963246,-0.39149792248797677,3.8650267207661018,-1.578833113016988
10.03463242,-0.45500750765225584,3.8080585802873643,-1.5293111197375089
10.03963239,-0.5201668581605663,3.735196965572257,-1.4717933745774883
10.04463239,-0.5862013507806728,3.6463009193542866,-1.406552958565459
10.04963242,-0.6522732035299935,3.5413928218660753,-1.3339172762111648
10.05463179,-0.7174952364546688,3.420660490095741,-1.254257802329704
10.05963115,-0.7809461077405714,3.2844558552609033,-1.1679801400538088
10.06463025,-0.8416865889232598,3.133290421809871,-1.0755148312720766
10.06962959,-0.8987764329376812,2.9678278146719963,-0.9773092912561003
10.07462865,-0.9512914026010161,2.7888738009645757,-0.8738211517751303
10.07962775,-0.9983400600172407,2.59736422416909,-0.7655132021409805
10.08462709,-1.039079963470714,2.3943513123096944,-0.6528500266622878
10.08962622,-1.0727329714102911,2.1809888194632396,-0.5362963572572191
10.09462535,-1.098599407143115,1.9585164371007644,-0.4163170918408509
10.09962535,-1.1160708879563244,1.7282438747575706,-0.2933788667843414
10.10462469,-1.1246416655565308,1.4915349644321387,-0.1679530080725331
10.10962465,-1.123918360051566,1.2497920938578362,-0.040519617744591015
10.11462462,-1.1136279977512744,1.0044412215500909,0.08842751657523185
10.11962458,-1.0936242851076412,0.7569176709776334,0.21837556193263233
10.12462458,-1.0638920688245481,0.5086528426321093,0.3487872451262978
10.12962465,-1.0245499471360573,0.2610619232867553,0.47909585280178696
10.13462468,-0.9758510099807666,0.015532615018338433,0.6087010407301625
10.13962472,-0.9181816954395242,-0.2265851429689792,0.736965820984847
10.14462432,-0.8520587556621733,-0.4639885246408935,0.863215028288273
10.14962432,-0.7781243286370103,-0.6954303274313017,0.9867354884135711
10.15462428,-0.6971391148565947,-0.9197267371120906,1.1067780331979922
10.15962428,-0.6099736622091417,-1.1357644337576183,1.222561436380932
10.16462455,-0.5175977697459102,-1.3425071060907556,1.3332782857402266
10.16962458,-0.4210680331970419,-1.5390014150574522,1.4381027597753326
10.17462458,-0.32151357484343657,-1.7243824172348277,1.5362002393049865
10.17962458,-0.22012003060468088,-1.8978784273537903,1.626738652724317
10.18462458,-0.11811191104182302,-2.0588152690551964,1.7089014241374838
10.18962458,-0.016733512650722246,-2.2066198361278277,1.781901860625886
10.19462458,0.08277136967771716,-2.3408228657255266,1.8449987729708195
10.19962455,0.17918059542626097,-2.4610608146704314,1.8975130701493361
10.20462518,0.2713152828241824,-2.5670767348584427,1.9388450029127695
10.20962585,0.35806138430597867,-2.6587200671597557,1.9684916605109994
10.21462678,0.43839070471208635,-2.735945313999468,1.9860642540954352
10.21962748,0.5113808071108856,-2.7988096036916303,1.991304658361411
10.22462838,0.5762332466754082,-2.847469217391948,1.9841006373237708
10.22962924,0.6322895930210044,-2.882175205406075,1.9644991571340167
10.23462988,0.6790447469459857,-2.9032682675018893,1.932717192319901
10.23963074,0.7161571268587998,-2.91117310635242,1.8891494626107235
10.24463161,0.7434553894415077,-2.906392479928333,1.8343725941862004
10.24963161,0.76094145420975,-2.889501175011861,1.7691452791636402
10.25463231,0.768789718403953,-2.861140099170528,1.6944041075960676
10.25963234,0.7673424718224301,-2.822010643039477,1.6112548642261313
10.26463238,0.7571016444557244,-2.772869400712774,1.5209592136518202
10.26963238,0.7387171362512008,-2.714523257780121,1.4249168365749474
10.27463238,0.7129720807518027,-2.6478247713303458,1.3246432201368479
10.27963231,0.680765475725585,-2.5736676840143784,1.2217434424936302
10.28463231,0.6430926698479019,-2.492982346004921,1.1178824232062365
10.28963231,0.6010242251445311,-2.4067307742161903,1.014752233909507
10.29463274,0.5556836837402618,-2.3159010641214097,0.914037173473964
10.29963274,0.5082247584623525,-2.2215008881781135,0.8173774034118768
10.30463274,0.4598084431637609,-2.124549864077401,0.7263320095219654
10.30963271,0.4115805029324737,-2.026070650572332,0.6423424042037835
10.31463267,0.3646497593170037,-1.9270787218271024,0.5666970108886071
10.31963264,0.3200675342900059,-1.8285708753688408,0.5004981770853701
10.32463264,0.2788085624926764,-1.731512635041642,0.4446322439606539
10.32963264,0.24175362875057524,-1.636824809966622,0.39974365692404534
10.33463267,0.20967414172280516,-1.54536955641805,0.3662139344419911
10.33963271,0.18321881872784637,-1.457936357751636,0.34414622454791205
10.34463274,0.1629026323911396,-1.375228386191801,0.3333560732130782
10.34963274,0.1490981542018945,-1.2978497382278913,0.33336890621983
10.35463274,0.14202941839993538,-1.2262940417390842,0.3434245848059749
10.3596327,0.1417684171953471,-1.160934917480029,0.36248923417055706
10.3646327,0.14823432244141954,-1.1020187405603903,0.3892743642833325
10.3696327,0.1611955082727248,-1.0496600899559407,0.4222631076380082
10.37463274,0.18027442277730057,-1.0038401972175521,0.4597431930813986
10.37963274,0.20495532286204263,-0.9644086109736059,0.4998460639492601
10.38463274,0.23459484306992726,-0.9310881836411372,0.540591338634363
10.38963274,0.26843531448362856,-0.9034833641632586,0.5799356092679722
10.39463274,0.30562068350517957,-0.8810916502458455,0.6158243868334528
10.39963274,0.34521480372151614,-0.8633179214422736,0.6462458370616209
10.4046327,0.38622179096152204,-0.8494912471621054,0.6692848203071635
