Time (s),Acceleration x (m/s^2),Acceleration y (m/s^2),Acceleration z (m/s^2)
6.001922079,0.42128063326694104,2.9055752152186893,-0.47003637498061496
6.006684839,-0.10706910699713046,4.668216499265788,-1.4782071590983223
6.011474214,-0.6019617715350825,6.4406781220191105,-2.4684227973554727
6.016250308,-1.0479463265288798,8.189941810080628,-3.414499550374488
6.021013068,-1.4315687537166195,9.881340187590897,-4.29158699404181
6.025802443,-1.7419181924011538,11.479085577197448,-5.076986203148653
6.030578485,-1.971076367222301,12.946898162182036,-5.750874776839212
6.035341298,-2.1144499701208423,14.248731964670304,-6.296910637513041
6.040130673,-2.1709696991476646,15.349591253799593,-6.702692674010807
6.044906714,-2.143144602064421,16.216423629845156,-6.960063529369697
6.049669475,-2.0369661126567316,16.819069473862182,-7.065247702122237
6.054458902,-1.8616624995615083,17.131241092782385,-7.018826143585936
6.059234943,-1.6293110934071726,17.131499138915906,-6.825556199311595
6.063997704,-1.3543222954245804,16.804189150465174,-6.494052592097352
6.068787131,-1.0528156645108768,16.140297727275684,-6.036350757020255
6.073563173,-0.7419140023993306,15.138186255474414,-5.467377889615112
6.078325933,-0.43898599347446604,13.804160488265802,-4.804359369197343
6.083115308,-0.1608713138601534,12.152836847615989,-4.066188742652003
6.087891402,0.07687604505070585,10.207271090547211,-3.2727883287895247
6.092654162,0.2606903634924224,7.99882192520608,-2.4444849924561467
6.097443537,0.37960846373293045,5.566731098886734,-1.6014220810007642
6.102219631,0.4257648615281671,2.957412151499233,-0.7630242560809833
6.106982391,0.3947421549143323,0.22345208786170231,0.05247268317090172
6.111771766,0.285757826915997,-2.5776567597311186,0.8284195350257783
6.11654786,0.10167696518992714,-5.385023958730109,1.5500757399309648
6.121310621,-0.15115009046630812,-8.136063330163363,2.2048558056277185
6.126099996,-0.4632160461896965,-10.76833416044954,2.7825024015918665
6.130876089,-0.8223318858733114,-13.221454430731976,3.275189710251564
6.13563885,-1.2142213364277898,-15.439011190765244,3.6775614616664787
6.140428225,-1.6232001990056755,-17.37038845635294,3.986708797237219
6.145204318,-2.0329020344685964,-18.97243217509129,4.202093682339039
6.149967079,-2.427010321661251,-20.210875381625943,4.325423853716882
6.154756454,-2.7899587420344623,-21.06145497279439,4.360485246457036
6.159532548,-3.1075656139294483,-21.510664581804747,4.3129376391118175
6.164295308,-3.3675752460376778,-21.556105340990452,4.190079020468529
6.169084683,-3.5600872034238185,-21.206416871312967,4.0005840560073676
6.173860777,-3.677862991144143,-20.4807931333989,3.754222176394477
6.178623537,-3.7165073058927773,-19.408110011795277,3.4615612972004226
6.183412912,-3.674527085180186,-18.025711766974503,3.133663886688372
6.188189006,-3.5532760837148345,-16.37792006968141,2.781782741429577
6.192951766,-3.356796108851524,-14.514341052847644,2.417064108104762
6.197741141,-3.0915688289060266,-12.488052187562994,2.050265564733257
6.202517235,-2.7661943081322784,-10.353751939513467,1.6914954501028379
6.207279996,-2.3910138177388927,-8.165951647824643,1.3499798546466477
6.212069371,-1.977694722932237,-5.9772816635028,1.0338624207139404
6.216845412,-1.5387943972637792,-3.83697331339819,0.7500413789312144
6.221608225,-1.0873185346404364,-1.7895655265829222,0.5040471743849453
6.2263976,-0.6362873349490322,0.1261292069336312,0.2999625985055323
6.231173641,-0.1983211164737589,1.8777796212796911,0.14038561436908653
6.235936402,0.21474489565733812,3.4400057433242948,0.02643325243687229
6.240725829,0.5922084726665348,4.794572184086645,-0.04221670878952686
6.245501871,0.9248042629704816,5.930324295105891,-0.06725089777459053
6.250264631,1.204958213824566,6.8428963792600666,-0.05161786505712868
6.255054058,1.4269883408642898,7.534228245245789,0.000596079984795447
6.2598301,1.5872489520112332,8.011930907392646,0.08430676929081458
6.26459286,1.684216797996538,8.288544158257258,0.19358231532423817
6.269382287,1.7185189919354735,8.380728212338637,0.32179880507331515
6.274158329,1.6929038242767482,8.308428892389738,0.4617979686218882
6.278921089,1.612156717789175,8.094051274704368,0.6060445267399638
6.283710464,1.4829644744528705,7.761670776314213,0.7467822532050147
6.288486558,1.3137316579756477,7.336303841683211,0.8761890167553268
6.293249318,1.1143534600809777,6.84325315729511,0.9865320428869296
6.298038693,0.8959497577382197,6.307535159934333,1.0703252207903775
6.302814787,0.6705653320671643,5.753390948037865,1.1204903766351046
6.307577548,0.4508414479468772,5.203875947719105,1.1305239933551643
6.312366923,0.2496642445870788,4.6805191495528025,1.09466988903735
6.317143016,0.07979569443027446,4.20303964665835,1.0080969450067971
6.321905777,-0.04650674578493407,3.7891066775600555,0.867079235853675
6.326695152,-0.1178752452786901,3.454129395117342,0.6691740296198296
6.331471246,-0.12421443250787269,3.211064029795336,0.41339127684786764
6.336234006,-0.057074325741146535,3.070228801447703,0.10034656053408227
6.341023381,0.08999496578004461,3.0391206142020892,-0.26761181625777986
6.345799475,0.3211158983120272,3.1222319563762713,-0.6863117483988163
6.350562235,0.6377934859731573,3.3208711977342174,-1.1497126375840347
6.35535161,1.0386734189924922,3.632994277309026,-1.6499170526678484
6.360127704,1.5193597542875534,4.053060236154167,-2.1772475401449234
6.364890464,2.0723039818067504,4.571926800207113,-2.720395445732006
6.369679839,2.686777165369935,5.17680491661458,-3.2666458989027807
6.374455933,3.3489361286502195,5.851292511165743,-3.8021796881777403
6.379231975,4.0419931661801805,6.575507564994994,-4.312448730227431
6.384008068,4.7464964096171975,7.3263387884665825,-4.78261738147993
6.388784162,5.440724737157208,8.077828664627292,-5.19805718031364
6.393546923,6.101197023668388,8.80169850251355,-5.544878013654013
6.398336298,6.703290721402333,9.468018547454705,-5.810474487348182
6.403112391,7.221959445406217,10.046018415717546,-5.984062779353181
6.407875152,7.63253367985263,10.505024525688707,-6.05718079957259
6.412664527,7.911583216947655,10.815502236338798,-6.024123388951728
6.417440568,8.03781480309757,10.95017158066504,-5.882284894246188
6.422203381,7.9929740321566545,10.885157329508472,-5.632384122802664
6.426992756,7.762717115061523,10.601127164660634,-5.278551719878107
6.431768798,7.3374159943417725,10.084366468683648,-4.828267371010684
6.436531558,6.712859438743585,9.327735094120088,-4.292143280761701
6.441320985,5.890813247414876,8.331450840739999,-3.6835600563749695
6.446097027,4.879404569388667,7.103646548699015,-3.0181703438554908
6.450859787,3.693298780888589,5.660652911010702,-2.3132934452164893
6.455649214,2.3536426240194914,4.02696741927001,-1.587230055818289
6.460425256,0.8877546339605702,2.2348812541145446,-0.8585298843529942
6.465188016,-0.6714466510578453,0.323750212757723,-0.1452463275102599
6.469977391,-2.286274765147196,-1.6610874912278404,0.5357880715204498
6.474753485,-3.915352783066604,-3.669725165809747,1.1696335144721617
6.479516246,-5.514907471301695,-5.649392420509273,1.7438332672509407
6.484305621,-7.040237540369203,-7.546390470461748,2.2488973055739505
6.489081714,-8.447300389492408,-9.308179475238479,2.6786587974124765
6.493844475,-9.694350570454677,-10.885523824027775,3.0304883419439492
6.49863385,-10.743555072571958,-12.234589790088064,3.3053570635681044
6.503409943,-11.562506676765768,-13.318884293627729,3.5077463201660444
6.508172704,-12.125558035372173,-14.110925127709207,3.645408291232877
6.512962079,-12.414906245996121,-14.5935427024399,3.7289873103881006
6.517738173,-12.421370227090806,-14.760730920505218,3.771516031382807
6.522500933,-12.144820137478112,-14.61798902115829,3.7878034590126415
6.527290308,-11.594237719494174,-14.182125235374341,3.7937341201414174
6.532066402,-10.787406785092,-13.480524595700587,3.8054998950385266
6.536829162,-9.750252307477428,-12.549914797909672,3.838788673930937
6.541618537,-8.515863472740588,-11.434693241877095,3.907956987008905
6.546394631,-7.12324986419813,-10.184903185866414,4.025216714820321
6.551157391,-5.615890299889157,-8.853965686036585,4.199868492284567
6.555946766,-4.0401405097235585,-7.496285612466151,4.437616068368892
6.56072286,-2.4435688036941703,-6.1648541570343145,4.739996279924196
6.565485621,-0.8732883555774792,-4.9089671298135205,5.103958096732338
6.570274996,0.6256488860646093,-3.7721687123198784,5.521621169650898
6.575051089,2.0117378225096076,-2.7905152338076316,5.980239378606902
6.57981385,3.2483346940210263,-1.9912341637023727,6.462388068672647
6.584603225,4.304759344534747,-1.3918311558182959,6.946385126669774
6.589379318,5.157154616778666,-0.9996739499514502,7.406946041750636
6.594142079,5.789083017784763,-0.812057518931016,7.816061984454226
6.598931454,6.191851441149259,-0.8167312594115177,8.144078232586246
6.603707496,6.364564806769973,-0.9928473737985127,8.360938580958019
6.608470308,6.313918607204854,-1.3122708515658932,8.437550362654955
6.613259683,6.05374824559759,-1.7411764252275557,8.34721504890629
6.618035725,5.604359545405965,-2.241847127770273,8.067061717288743
6.622798537,4.991669866064126,-2.7745829519174796,7.579415566622641
6.627587912,4.246192938752417,-3.2996266913120844,6.873031615451573
6.632363954,3.4019029995821737,-3.7790171571163578,5.944125137354724
6.637126714,2.4950152776198427,-4.178287195603021,4.797135487253121
6.641916089,1.5627206625125483,-4.467934670585164,3.4451687738262424
6.646692183,0.6419126495180512,-4.624608078105343,1.9100771098857574
6.651454943,-0.23205548138274648,-4.6319639240752375,0.22214748536510281
6.656244318,-1.0265459234605725,-4.481169591371379,-1.5806089415306168
6.661020412,-1.7127079881551783,-4.171042338499293,-3.453556872821878
6.665783173,-2.2664121993228017,-3.707831550123961,-5.346895622116103
6.6705726,-2.669016010124972,-3.1046667352864987,-7.207425759049916
6.675348641,-2.9079345575634368,-2.3807074864368216,-8.98055374415537
6.680111402,-2.9769953217037606,-1.5600432257502614,-10.61244784115511
6.684900777,-2.8765622108117754,-0.6703997304263142,-12.052245154219992
6.689676871,-2.613422323281142,0.258284106038881,-13.254200666116574
6.694439631,-2.200437202252984,1.1953422224074914,-14.179665784888236
6.699229006,-1.6559694996769028,2.110862356476389,-14.79878744904981
6.7040051,-1.003105288388961,2.9770966610245915,-15.09183069893467
6.70876786,-0.2687014038306665,3.7697417253305057,-15.050048502795237
6.713557235,0.5177044694126549,4.469035301554908,-14.676051282829066
6.718333329,1.3250765667596103,5.060626414021169,-13.983661448109556
6.723096089,2.1221079765807844,5.536186110896806,-12.997270706996687
6.727885464,2.878441468875374,5.893737346334325,-11.7507462458562
6.732661558,3.5658349652009913,6.137693909511763,-10.285954052461669
6.737424318,4.159225623460453,6.278609585030772,-8.650983283925962
6.742213693,4.6376515307553134,6.332649545052945,-6.898165013218427
6.746989787,4.984996437410269,6.320806094543209,-5.081982639160262
6.751752548,5.190530525772544,6.267890092286949,-3.2569704602758502
6.756541923,5.249228635023025,6.201337421385765,-1.475692019256393
6.761317964,5.161856404020873,6.149876553826411,0.21311869372176656
6.766080777,4.9348241473552,6.142108349147811,1.7661817548580867
6.770870152,4.579817578453621,6.205052618942244,3.147004311715401
6.775646246,4.113223329146601,6.362717626966059,4.3268808237561
6.780409006,3.555375189484285,6.634748598017271,5.285536182732451
6.785198381,2.929653767101714,7.035209538092067,6.011404334229618
6.789974475,2.261477592676625,7.571549291471891,6.501551271689654
6.794737235,1.5772274213109643,8.243797834079881,6.761266085296005
6.79952661,0.9031475253204508,9.044032378898489,6.803356532752968
6.804302652,0.2642681299485614,9.956145014573607,6.6471959171249795
6.809065412,-0.316608155496573,10.955934409202479,6.317575623475078
6.813854839,-0.81981593331671,12.011533725785185,5.843422342346206
6.818630881,-1.229596987914901,13.084175501943127,5.256440787034652
6.823393641,-1.5347005932065871,14.129282091284551,4.5897417073100835
6.828183068,-1.7287908284013167,15.097857659955036,3.876511444600819
6.83295911,-1.8106451546283557,15.938145059630552,3.148773500928791
6.837721871,-1.7841367014119613,16.59749860206194,2.436285035620441
6.842511298,-1.6580012400890225,17.024412339304895,1.7656023508618803
6.847287339,-1.445398380397709,17.1706334419381,1.1593397962185443
6.8520501,-1.1632848120600847,16.993282207767493,0.6356366243357484
6.856839527,-0.8316251271647774,16.456894650924706,0.20783664338164562
6.861615568,-0.4724726172487453,15.535300997467985,-0.11562354213492378
6.866391662,-0.10895817564396602,14.213254159602418,-0.33112998544746536
6.871167704,0.23577018922161713,12.487726688496416,-0.43962966580201945
6.875943798,0.5396119150168822,10.36880299918893,-0.44621611709998527
6.880719891,0.7825361230947406,7.880105847303075,-0.3595908957251098
6.885495933,0.9475158818392375,5.058711962026154,-0.19143179449077424
6.890272027,1.0213314709264345,1.9545310507707505,0.04430031467825196
6.895048121,0.9952041124013951,-1.3708554702369267,0.33208450101580894
6.899824162,0.8652279188965143,-4.845875462225945,0.6555627287546375
6.904600256,0.6325757680884836,-8.391120903671421,0.9982354142418013
6.909363016,0.30346429356419347,-11.921905458129059,1.3441056611204227
6.914152391,-0.11112598171180194,-15.35112976131752,1.6782522510188864
6.918928485,-0.5959673228065413,-18.592338458363738,1.9873159246369583
6.923691246,-1.1323172325589244,-21.562836722265303,2.2598883194259383
6.928480621,-1.698832112421177,-24.18672411426503,2.486797961946289
6.933256714,-2.2726145141230525,-26.397701697049357,2.6612925376167036
6.938019475,-2.8303354583090674,-28.14151519824314,2.7791207784647054
6.94280885,-3.349366536033235,-29.37791292353174,2.8385204458640074
6.947584943,-3.8088553903615767,-30.08202141301409,2.840121100010221
6.952347704,-4.190683128067099,-30.24507308165993,2.7867718794224476
6.957137079,-4.480252534176362,-29.874456100566107,2.6833055831660038
6.961913173,-4.667070117910475,-28.993094807779567,2.5362510626575565
6.966675933,-4.745101038295,-27.6382059390318,2.353506305836365
6.971465308,-4.71289182898688,-25.85950897121968,2.1439846363456403
6.97624135,-4.573469882289958,-23.716995411262644,1.917246142172791
6.981004162,-4.3340398682711365,-21.278380327008655,1.6831257252919574
6.985793537,-4.005505516429976,-18.61636916111897,1.4513679735073046
6.990569579,-3.601850935645074,-15.805874090912544,1.2312775090977621
6.995332339,-3.139419397055636,-12.92130770009169,1.0313918767090036
7.000121766,-2.636129392849363,-10.034068716683912,0.859182746855782
7.004897808,-2.1106676533814386,-7.210316499953211,0.7207904130034042
7.009660568,-1.5816965769985176,-4.509109395173527,0.6207961934976916
7.014449996,-1.0671094505981873,-1.9809585758709007,0.5620372307247097
7.019226037,-0.5833614237955123,0.33317498540814905,0.5454681362687679
7.023988798,-0.14489800299151584,2.4024359364755856,0.5700738404863767
7.028778173,0.23630368439619062,4.206199114299386,0.6328377644177929
7.033554266,0.551072089338278,5.733798460988064,0.7287689454545527
7.038317027,0.7932542931752922,6.98391045416394,0.8509909539279613
7.043106402,0.959807845534594,7.963653267739417,0.9908943242072104
7.047882496,1.0507790000650243,8.687469783710124,1.1383528111363157
7.052645256,1.0691785841965542,9.17586534883522,1.282002097934561
7.057434631,1.0207692325730129,9.45407004856741,1.4095776537498723
7.062210725,0.9137791214283658,9.55069068103894,1.5083062993573548
7.066973485,0.7585577798314745,9.496410126758738,1.5653437248893523
7.07176286,0.5671891614090903,9.322782092831337,1.568247774959621
7.076538954,0.35307609896497444,9.061157994650387,1.5054748786621992
7.081301714,0.13050873037826255,8.741770790137194,1.3668846896425741
7.086091089,-0.08577232210949699,8.392988671672688,1.1442359477954924
7.090867183,-0.28100914744823746,8.04074037029251,0.8316548999111402
7.095629943,-0.44084912794318326,7.70810404626638,0.42605644789750885
7.100419318,-0.5517516571288362,7.4150437859134355,-0.07250231971105445
7.105195412,-0.6013751974443948,7.1782718902592695,-0.6605562466899382
7.109958173,-0.5789419029909367,7.011211572706983,-1.331072628806018
7.114747548,-0.47557748797721755,6.924033387607052,-2.0734145337548697
7.119523641,-0.284623838666809,6.923739561578108,-2.873439874606982
7.124286402,-0.0019210587971307887,7.0142731433519225,-3.713744683738213
7.129075777,0.3739456872126678,7.196633173954682,-4.574053568479973
7.133851871,0.841440821780265,7.468982481893245,-5.431754071993718
7.138614631,1.3959225175489378,7.826740760178478,-6.262564839648104
7.143404006,2.0295459633000954,8.26266180722814,-7.041320373285831
7.1481801,2.7312364589725915,8.766899753683967,-7.74284804744543
7.152956141,3.486743564331286,9.327074330873279,-8.342906300031979
7.157732235,4.278787193245817,9.928349399222192,-8.819146871506721
7.162508277,5.087305234496778,10.553541757431836,-9.15205906817819
7.167271089,5.8898099005835824,11.183278497336708,-9.32585071436289
7.172060464,6.661856546861684,11.796220759018206,-9.32921922211762
7.176836506,7.377624249301404,12.369369696519781,-9.155967631218322
7.181599266,8.010602174765538,12.87846692501605,-8.805425231890824
7.186388693,8.534370020621912,13.29849689759073,-8.282640927510547
7.191164735,8.923454888996007,13.604292765980029,-7.598329519495159
7.195927496,9.154241221890306,13.77124050584087,-6.768565392824423
7.200716923,9.20590513813498,13.776068663445512,-5.814233024835356
7.205492964,9.06133994911438,13.597703339376674,-4.760257905850679
7.210255725,8.70803606922343,13.218160399968086,-3.634653827415495
7.2150451,8.138876263809832,12.623439894737439,-2.467432349126219
7.219821193,7.352806443646435,11.804381775949913,-1.2894270837386645
7.224583954,6.355343210527639,10.757437771794372,-0.13108890093588868
7.229373329,5.158882209736011,9.485312125510262,0.9786918767475037
7.234149423,3.7827761352136204,7.9974242941278,2.0136835132349895
7.238912183,2.253158015651825,6.31014995306317,2.9512843237766555
7.243701558,0.6024941845831842,4.446803024431197,3.773328496487438
7.248477652,-1.1311380045427062,2.4373310125215233,4.466695836301627
7.253240412,-2.905040389947948,0.3177085239770579,5.023703860759034
7.258029787,-4.673131393234412,-1.8709709677153807,5.442269408333521
7.262805881,-6.3873959047032445,-4.08368798893473,5.725835459216578
7.267568641,-7.999499276631682,-6.272939412370976,5.883067379629082
7.272358016,-9.462504436754939,-8.390377223431743,5.927331486519049
7.27713411,-10.732620579733336,-10.388574082886064,5.875977668829744
7.281896871,-11.770904484722724,-12.222832252581018,5.749456386868333
7.286686246,-12.544832438264855,-13.85294298323465,5.570308034757717
7.291462339,-13.029663009076446,-15.244799884619447,5.362068741316486
7.2962251,-13.209518956478027,-16.371773225190243,5.148140673886906
7.301014475,-13.078130070025209,-17.21576289670428,4.950676377806139
7.305790568,-12.639196707563245,-17.76786539227383,4.7895254656157995
7.310553329,-11.906354493452813,-18.028613189925693,4.681288342370342
7.315342704,-10.902741934952333,-18.007771359576875,4.638516215265363
7.320118746,-9.660192663502254,-17.723703652749744,4.66908993633381
7.324881558,-8.218091272051844,-17.20234646685222,4.775802560260518
7.329670933,-6.621945647283423,-16.475851900255734,4.956162037132022
7.334446975,-4.921739136269673,-15.580979120133977,5.2024214975903265
7.339209735,-3.170132943298654,-14.557325475478876,5.501835624844059
7.343999162,-1.4205929758027331,-13.44549474070711,5.837133203263468
7.348775204,0.2744839487577891,-12.285299594223632,6.1871884732038245
7.353537964,1.8655719843578946,-11.11408938745201,6.527867490914138
7.358327339,3.3076789565514004,-9.965283265484388,6.8330201502262575
7.363103433,4.561810547968182,-8.867173818906457,7.075583694434231
7.367866193,5.5961867941773376,-7.8420488563039585,7.228759348425352
7.372655568,6.387173489691221,-6.905659795072919,7.267220153080361
7.377431662,6.91990376212701,-6.0670457336126224,7.168305300301747
