Time (s),X (m/s^2),Y (m/s^2),Z (m/s^2)
9.004717917,3.2501230981458256e+28,5.066827781630029e+28,4.2304261440646836e+29
9.014644917,3.2167226255580863e+28,5.0219163313013825e+28,4.1890094264358486e+29
9.024570917,3.1836558250542666e+28,4.9773894803387235e+28,4.14802837164048e+29
9.034497917,3.1509196896624034e+28,4.933243805530522e+28,4.107478116332115e+29
9.044423917,3.1185112354781645e+28,4.889475920850212e+28,4.0673538476455066e+29
9.054349917,3.086427501454175e+28,4.846082476926637e+28,4.0276508027874465e+29
9.064276917,3.054665549193337e+28,4.803060160521419e+28,3.988364268630603e+29
9.074202917,3.0232224627461226e+28,4.760405694013267e+28,3.949489581310276e+29
9.084129917,2.9920953484118134e+28,4.718115834889198e+28,3.9110221258239216e+29
9.094055917,2.9612813345436844e+28,4.676187375242714e+28,3.872957335633382e+29
9.103982917,2.930777571358126e+28,4.634617141278978e+28,3.835290692269783e+29
9.113908917,2.9005812307476624e+28,4.59340199282701e+28,3.798017724941076e+29
9.123835917,2.8706895060978224e+28,4.5525388228588945e+28,3.761134010142173e+29
9.133761917,2.8410996121077955e+28,4.512024557016052e+28,3.724635171267614e+29
9.143688917,2.811808784614846e+28,4.471856153142599e+28,3.688516878226757e+29
9.153614917,2.7828142804224363e+28,4.432030600825794e+28,3.652774847061427e+29
9.163541917,2.7541133771320495e+28,4.392544920943588e+28,3.617404839566006e+29
9.173467917,2.725703372978699e+28,4.35339616521925e+28,3.582402662909905e+29
9.183393917,2.69758158667009e+28,4.314581415783022e+28,3.547764169262438e+29
9.193320917,2.6697453572293876e+28,4.276097784740776e+28,3.513485255420066e+29
9.203246917,2.64219204384156e+28,4.237942413749624e+28,3.4795618624360214e+29
9.213173917,2.6149190257032563e+28,4.2001124736004425e+28,3.445989975252287e+29
9.223099917,2.5879237018761633e+28,4.162605163807245e+28,3.412765622333925e+29
9.233026917,2.5612034911437646e+28,4.125417712203354e+28,3.379884875305766e+29
9.242952917,2.534755831871445e+28,4.088547374544368e+28,3.3473438485914676e+29
9.252879917,2.508578181869869e+28,4.051991434117915e+28,3.3151386990549674e+29
9.262805917,2.4826680182615738e+28,4.015747201360204e+28,3.283265625644354e+29
9.272732917,2.457022837350686e+28,3.9798120134793605e+28,3.251720869038176e+29
9.282658917,2.4316401544956685e+28,3.9441832340855235e+28,3.220500711294232e+29
9.292585917,2.406517503984983e+28,3.908858252827634e+28,3.189601475500847e+29
9.302511917,2.3816524389155573e+28,3.873834485036861e+28,3.159019525430634e+29
9.312438917,2.357042531073981e+28,3.8391093713765855e+28,3.1287512651967395e+29
9.322364917,2.332685370820325e+28,3.804680377498887e+28,3.0987931389115966e+29
9.332290917,2.3085785669744994e+28,3.77054499370742e+28,3.0691416303481857e+29
9.342217917,2.2847197467050755e+28,3.7367007346265852e+28,3.039793262603799e+29
9.352143917,2.2611065554204773e+28,3.7031451388768526e+28,3.0107445977662786e+29
9.362070917,2.237736656662475e+28,3.6698757687560823e+28,2.981992236582678e+29
9.371996917,2.2146077320019024e+28,3.6368902099267106e+28,2.953532818130306e+29
9.381923917,2.1917174809365163e+28,3.6041860711086646e+28,2.9253630194900846e+29
9.391849917,2.1690636207909287e+28,3.5717609837778565e+28,2.897479555422168e+29
9.401776917,2.1466438866185305e+28,3.539612601870139e+28,2.869879178043753e+29
9.411702917,2.1244560311053255e+28,3.5077386014906123e+28,2.8425586765090162e+29
9.421629917,2.10249782447558e+28,3.4761366806281685e+28,2.8155148766911207e+29
9.431555917,2.0807670543991996e+28,3.4448045588751758e+28,2.788744640866251e+29
9.441482917,2.0592615259007186e+28,3.413739977152202e+28,2.762244867399607e+29
9.451408917,2.037979061269783e+28,3.3829406974376793e+28,2.7360124904333254e+29
9.461334917,2.0169174999730145e+28,3.3524045025024135e+28,2.7100444795762702e+29
9.471261917,1.996074698567141e+28,3.3221291956488535e+28,2.6843378395956357e+29
9.481187917,1.9754485306133011e+28,3.292112600455034e+28,2.658889610110285e+29
9.491114917,1.955036886592435e+28,3.2623525605231087e+28,2.6336968652857657e+29
9.501040917,1.934837673821689e+28,3.2328469392323847e+28,2.6087567135309427e+29
9.510967917,1.914848816371751e+28,3.203593619496775e+28,2.584066297196197e+29
9.520893917,1.8950682549850478e+28,3.1745905035265763e+28,2.559622792273138e+29
9.530820917,1.87549394699473e+28,3.145835512594471e+28,2.535423408095771e+29
9.540746917,1.856123866244375e+28,3.1173265868056613e+28,2.511465387043076e+29
9.550673917,1.8369560030083245e+28,3.0890616848720452e+28,2.4877460042429338e+29
9.560599917,1.8179883639125896e+28,3.061038783890351e+28,2.4642625672773553e+29
9.570526917,1.7992189718562612e+28,3.0332558791241517e+28,2.4410124158889416e+29
9.580452917,1.7806458659333622e+28,3.005710983789724e+28,2.4179929216885247e+29
9.590378917,1.762267101355062e+28,2.9784021288456964e+28,2.3952014878639058e+29
9.600305917,1.7440807493721756e+28,2.951327362786417e+28,2.3726355488896066e+29
9.610231917,1.726084897197883e+28,2.9244847514389386e+28,2.3502925702375525e+29
9.620158917,1.708277647930612e+28,2.8978723777635193e+28,2.3281700480886227e+29
9.630084917,1.6906571204770181e+28,2.8714883416575692e+28,2.306265509045005e+29
9.640011917,1.6732214494749975e+28,2.845330759762963e+28,2.2845765098433143e+29
9.649937917,1.65596878521667e+28,2.81939776527662e+28,2.263100637068436e+29
9.659864917,1.6388972935712834e+28,2.7936875077642974e+28,2.241835506868054e+29
9.669786667,1.6220051559079938e+28,2.7681981529775117e+28,2.2207787646678164e+29
9.679713667,1.6052905690184783e+28,2.7429278826735313e+28,2.1999280848871057e+29
9.689639667,1.5887517450393424e+28,2.7178748944383448e+28,2.1792811706553892e+29
9.699566667,1.5723869113743027e+28,2.6930374015125414e+28,2.158835753529114e+29
9.709492667,1.5561943106161274e+28,2.6684136326200117e+28,2.1385895932091286e+29
9.719418667,1.5401722004683115e+28,2.6440018317993797e+28,2.1185404772586113e+29
9.729345667,1.5243188536664582e+28,2.619800258238066e+28,2.0986862208215108e+29
9.739271667,1.5086325578993473e+28,2.5958071861089066e+28,2.0790246663414903e+29
9.749198667,1.4931116157296902e+28,2.5720209044092773e+28,2.0595536832813594e+29
9.759124667,1.4777543445145613e+28,2.548439716802696e+28,2.0402711678429666e+29
9.769051667,1.462559076325497e+28,2.5250619414628487e+28,2.02117504268754e+29
9.778977667,1.4475241578682444e+28,2.5018859109199794e+28,2.0022632566564674e+29
9.788904667,1.4326479504021602e+28,2.478909971909589e+28,1.983533784492503e+29
9.798830667,1.4179288296592703e+28,2.4561324852234232e+28,1.9649846265613803e+29
9.808757667,1.4033651857629937e+28,2.4335518255627254e+28,1.9466138085738087e+29
9.818683667,1.3889554231465275e+28,2.411166381393727e+28,1.9284193813078338e+29
9.828610667,1.3746979604708953e+28,2.388974554805328e+28,1.910399420331571e+29
9.838536667,1.36059123054267e+28,2.366974761368902e+28,1.892552025726316e+29
9.848463667,1.3466336802314023e+28,2.3451654300001665e+28,1.8748753218100568e+29
9.858389667,1.3328237703867863e+28,2.3235450028230364e+28,1.857367456861435e+29
9.868315667,1.3191599757555962e+28,2.3021119350354125e+28,1.8400266028441927e+29
9.878242667,1.3056407848984142e+28,2.2808646947768164e+28,1.8228509551321535e+29
9.888168667,1.2922647001061757e+28,2.2598017629978044e+28,1.8058387322348143e+29
9.898095667,1.2790302373165424e+28,2.2389216333310835e+28,1.7889881755236182e+29
9.908021667,1.265935926030122e+28,2.218222811964253e+28,1.772297548958983e+29
9.917948667,1.252980309226553e+28,2.1977038175141076e+28,1.755765138818158e+29
9.927874667,1.2401619432804808e+28,2.177363180902456e+28,1.7393892534239927e+29
9.937801667,1.2274793978774393e+28,2.157199445233396e+28,1.7231682228747093e+29
9.947727667,1.2149312559296494e+28,2.137211165672006e+28,1.7071003987747685e+29
9.957654667,1.2025161134917484e+28,2.1173969093244036e+28,1.69118415396694e+29
9.967580667,1.1902325796764712e+28,2.097755255119125e+28,1.6754178822656635e+29
9.977507667,1.178079276570299e+28,2.0782847936897987e+28,1.6597999981917875e+29
9.987433667,1.1660548391490981e+28,2.058984127259085e+28,1.644328936708756e+29
9.997359667,1.154157915193763e+28,2.0398518695238833e+28,1.629003152960305e+29
10.00728667,1.1423871652058744e+28,2.020886645541814e+28,1.6138211220097216e+29
10.01721267,1.130741262323382e+28,2.0020870916189696e+28,1.598781338580719e+29
10.02713967,1.1192188922363273e+28,1.9834518551989334e+28,1.5838823167999948e+29
10.03706567,1.1078187531026167e+28,1.964979594753085e+28,1.569122589941525e+29
10.04699267,1.0965395554638544e+28,1.9466689796722189e+28,1.5545007101726411e+29
10.05691867,1.0853800221612303e+28,1.9285186901595072e+28,1.540015248301945e+29
10.06684567,1.0743388882514537e+28,1.9105274171248197e+28,1.5256647935291055e+29
10.07677167,1.0634149009227265e+28,1.8926938620804163e+28,1.5114479531965915e+29
10.08669867,1.052606819410749e+28,1.8750167370380325e+28,1.4973633525433932e+29
10.09662467,1.041913414914745e+28,1.8574947644073746e+28,1.483409634460776e+29
10.10655167,1.0313334705134917e+28,1.840126676896027e+28,1.4695854592500982e+29
10.11647767,1.0208657810813444e+28,1.8229112174107918e+28,1.4558895043827028e+29
10.12640467,1.0105091532042553e+28,1.8058471389604582e+28,1.4423204642619039e+29
10.13633067,1.0002624050957862e+28,1.7889332045599925e+28,1.4288770499870839e+29
10.14625667,9.901243665131231e+27,1.772168187136138e+28,1.4155579891199255e+29
10.15618367,9.800938786731013e+27,1.7555508694344126e+28,1.4023620254527961e+29
10.16610967,9.701697941682494e+27,1.739080043927465e+28,1.3892879187792892e+29
10.17603667,9.60350976882865e+27,1.7227545127247434e+28,1.376334444666929e+29
10.18596267,9.506363019091314e+27,1.7065730874834323e+28,1.3635003942320388e+29
10.19588967,9.410246554632884e+27,1.6905345893206312e+28,1.3507845739167784e+29
10.20581567,9.31514934801868e+27,1.674637848726764e+28,1.3381858052683527e+29
10.21574267,9.221060481380126e+27,1.658881705480204e+28,1.3257029247203927e+29
10.22566867,9.12796914557893e+27,1.6432650085631095e+28,1.31333478337651e+29
10.23559567,9.035864639372377e+27,1.6277866160784584e+28,1.3010802467960152e+29
10.24552167,8.944736368579828e+27,1.61244539516826e+28,1.2889381947817971e+29
10.25544867,8.854573845250586e+27,1.5972402219329196e+28,1.2769075211703605e+29
10.26537467,8.765366686833269e+27,1.5821699813517495e+28,1.2649871336240206e+29
10.27530067,8.677104615346843e+27,1.5672335672046055e+28,1.2531759534252443e+29
10.28522767,8.58977745655347e+27,1.5524298819946333e+28,1.2414729152731316e+29
10.29515367,8.503375139133383e+27,1.5377578368720989e+28,1.2298769670820296e+29
10.30508067,8.41788769386194e+27,1.5232163515592739e+28,1.2183870697822767e+29
10.31500667,8.33330525278896e+27,1.508804354276346e+28,1.2070021971230772e+29
10.32493367,8.249618048420437e+27,1.4945207816683267e+28,1.1957213354775093e+29
10.33485967,8.166816412902695e+27,1.4803645787329222e+28,1.184543483649663e+29
10.34478667,8.084890777209003e+27,1.4663346987493352e+28,1.1734676526839009e+29
10.35471267,8.003831670328675e+27,1.4524301032079708e+28,1.1624928656762481e+29
10.36463967,7.923629718458723e+27,1.4386497617410314e+28,1.1516181575879104e+29
10.37456567,7.844275644198105e+27,1.4249926520539775e+28,1.1408425750609305e+29
10.38449267,7.765760265744608e+27,1.4114577598578352e+28,1.1301651762359983e+29
10.39441867,7.688074496094391e+27,1.3980440788023312e+28,1.1195850305724288e+29
10.40434567,7.611209342244189e+27,1.384750610409845e+28,1.1091012186703266e+29
10.41427167,7.535155904396203e+27,1.3715763640101634e+28,1.0987128320949509e+29
10.42419767,7.459905375165708e+27,1.358520356676027e+28,1.0884189732032944e+29
10.43412467,7.385449038791295e+27,1.3455816131594649e+28,1.0782187549728824e+29
10.44405067,7.311778270347662e+27,1.3327591658288973e+28,1.0681113008327999e+29
10.45397767,7.238884534960823e+27,1.3200520546069786e+28,1.0580957444969573e+29
10.46390367,7.166759387025532e+27,1.307459326909146e+28,1.0481712297996149e+29
10.47383067,7.095394469424834e+27,1.2949800375828368e+28,1.0383369105331897e+29
10.48375667,7.024781512751639e+27,1.2826132488473412e+28,1.0285919502883624e+29
10.49368367,6.954912334532245e+27,1.2703580302342503e+28,1.0189355222964962e+29
10.50360967,6.885778838451787e+27,1.258213458528475e+28,1.0093668092743769e+29
10.51353667,6.817373013581602e+27,1.2461786177098175e+28,9.998850032712828e+28
10.52346267,6.749686933608521e+27,1.2342525988950712e+28,9.904893055183949e+28
10.53338967,6.682712756066169e+27,1.2224345002806338e+28,9.811789262805505e+28
10.54331567,6.616442721568345e+27,1.2107234270856244e+28,9.719530847103352e+28
10.55324167,6.550869153044515e+27,1.199118491495492e+28,9.628110087045027e+28
10.56316867,6.485984454977463e+27,1.1876188126061105e+28,9.53751934762719e+28
10.57309467,6.421781112643162e+27,1.1762235163683625e+28,9.44775107848631e+28
10.58302167,6.358251691352919e+27,1.1649317355332033e+28,9.358797812532523e+28
10.59294767,6.295388835697887e+27,1.1537426095971976e+28,9.270652164606603e+28
10.60287467,6.233185268796084e+27,1.1426552847485117e+28,9.183306830159986e+28
10.61280067,6.171633791542104e+27,1.1316689138133447e+28,9.096754583957677e+28
10.62272767,6.110727281859695e+27,1.1207826562027957e+28,9.01098827880383e+28
10.63265367,6.05045869395734e+27,1.1099956778601513e+28,8.926000844289802e+28
10.64258067,5.990821057586988e+27,1.0993071512085796e+28,8.841785285564502e+28
10.65250667,5.931807477306187e+27,1.0887162550992187e+28,8.75833468212678e+28
10.66243367,5.873411131743813e+27,1.0782221747596548e+28,8.675642186639601e+28
10.67235979,5.815625272869634e+27,1.0678241017427903e+28,8.593701023765736e+28
10.68228679,5.758443225267918e+27,1.057521233876104e+28,8.512504489024737e+28
10.69221279,5.701858385415302e+27,1.0473127752113124e+28,8.432045947671016e+28
10.70213879,5.645864220963152e+27,1.0371979359744325e+28,8.352318833592959e+28
10.71206579,5.590454270024626e+27,1.0271759325162594e+28,8.27331664823296e+28
10.72199179,5.535622140466652e+27,1.0172459872632624e+28,8.19503295952826e+28
10.73191879,5.481361509207048e+27,1.007407328668904e+28,8.117461400872357e+28
10.74184479,5.427666121516936e+27,9.97659191165383e+27,8.040595670096749e+28
10.75177179,5.374529790328613e+27,9.880008151158078e+27,7.964429528472732e+28
10.76169779,5.321946395548969e+27,9.784314467668001e+27,7.888956799732936e+28
10.77162479,5.269909883378544e+27,9.689503382015273e+27,7.81417136911227e+28
10.78155079,5.218414265636246e+27,9.595567472931617e+27,7.740067182407936e+28
10.79147779,5.167453619089769e+27,9.502499376587679e+27,7.666638245058113e+28
10.80140379,5.117022084791679e+27,9.410291786136135e+27,7.593878621239033e+28
10.81133079,5.067113867421181e+27,9.318937451258973e+27,7.52178243298011e+28
10.82125679,5.017723234631525e+27,9.2284291777189e+27,7.450343859296883e+28
10.83118379,4.968844516403079e+27,9.138759826914794e+27,7.379557135341525e+28
10.84110979,4.92047210440206e+27,9.049922315441206e+27,7.309416551570668e+28
10.85103579,4.872600451344995e+27,8.96190961465183e+27,7.239916452930249e+28
10.86096279,4.825224070368938e+27,8.874714750226885e+27,7.17105123805705e+28
10.87088879,4.778337534407436e+27,8.788330801744336e+27,7.102815358496641e+28
10.88081579,4.731935475572251e+27,8.702750902254801e+27,7.035203317937429e+28
10.89074179,4.6860125845408137e+27,8.617968237860035e+27,6.968209671460546e+28
10.90066879,4.64056360994943e+27,8.533976047294843e+27,6.901829024805269e+28
10.91059479,4.5955833577922076e+27,8.450767621512345e+27,6.836056033649711e+28
10.92052179,4.551066690825683e+27,8.368336303272492e+27,6.770885402906433e+28
10.93044779,4.507008527979144e+27,8.286675486733729e+27,6.706311886032683e+28
10.94037479,4.4634038437706446e+27,8.205778617047729e+27,6.6423302843549636e+28
10.95030079,4.420247667728687e+27,8.125639189957176e+27,6.578935446407625e+28
10.96022779,4.3775350838195675e+27,8.046250751396536e+27,6.516122267285168e+28
10.97015379,4.3352612298803423e+27,7.967606897095731e+27,6.453885688007886e+28
10.98008079,4.293421297057375e+27,7.889701272186639e+27,6.39222069490057e+28
10.99000679,4.252010529250423e+27,7.812527570812291e+27,6.331122318984006e+28
10.99993279,4.211024222562243e+27,7.736079535738654e+27,6.270585635379055e+28
11.00985979,4.1704577247537316e+27,7.660350957968907e+27,6.210605762723135e+28
11.01978579,4.130306434704606e+27,7.585335676360168e+27,6.151177862598896e+28
11.02971279,4.09056580187962e+27,7.511027577242606e+27,6.092297138974905e+28
11.03963879,4.05123132580033e+27,7.437420594040901e+27,6.033958837658113e+28
11.04956579,4.0122985555224396e+27,7.364508706898033e+27,5.976158245757964e+28
11.05949179,3.9737630891187505e+27,7.292285942301346e+27,5.918890691161982e+28
11.06941879,3.9356205731677196e+27,7.220746372710762e+27,5.862151542022708e+28
11.07934479,3.8978667022476085e+27,7.149884116189071e+27,5.8059362062558585e+28
11.08927179,3.860497218436206e+27,7.079693336034204e+27,5.750240131049614e+28
11.09919779,3.8235079108161255e+27,7.010168240413419e+27,5.695058802384954e+28
11.10912479,3.7868946149856834e+27,6.941303081999426e+27,5.640387744566898e+28
11.11905079,3.750653212575309e+27,6.873092157608488e+27,5.586222519766543e+28
11.12897679,3.714779630769435e+27,6.805529807840556e+27,5.532558727573741e+28
11.13890379,3.679269841833799e+27,6.738610416721504e+27,5.479392004560272e+28
11.14882979,3.64411986264812e+27,6.672328411347532e+27,5.426718023853302e+28
11.15875679,3.6093257542441275e+27,6.606678261531782e+27,5.374532494718916e+28
11.16868279,3.5748836213488785e+27,6.541654479453178e+27,5.322831162155447e+28
11.17860979,3.5407896119333143e+27,6.477251619307496e+27,5.271609806496323e+28
11.18853579,3.5070399167659865e+27,6.413464276960668e+27,5.220864243022111e+28
11.19846279,3.4736307689718675e+27,6.350287089604358e+27,5.170590321581436e+28
11.20838879,3.440558443596125e+27,6.287714735413901e+27,5.120783926220463e+28
11.21831579,3.4078192571727103e+27,6.225741933208669e+27,5.071440974820588e+28
11.22824179,3.375409567297627e+27,6.164363442114944e+27,5.022557418744072e+28
11.23816879,3.3433257722067686e+27,6.103574061231311e+27,4.974129242487355e+28
11.24809479,3.311564310358209e+27,6.043368629296638e+27,4.926152463341822e+28
11.25802179,3.2801216600188255e+27,5.983742024360655e+27,4.878623131061825e+28
11.26794779,3.2489943388551403e+27,5.924689163457211e+27,4.831537327539761e+28
11.27787379,3.218178903528295e+27,5.866205002280259e+27,4.784891166487957e+28
11.28780079,3.1876719492930815e+27,5.808284534862658e+27,4.738680793127134e+28
11.29772679,3.15747010960096e+27,5.750922793257868e+27,4.692902383881258e+28
11.30765379,3.127570055707028e+27,5.694114847224657e+27,4.647552146078673e+28
11.31757979,3.0979684962808955e+27,5.637855803914915e+27,4.602626317659399e+28
11.32750679,3.068662177021441e+27,5.582140807564676e+27,4.558121166888479e+28
11.33743279,3.0396478802753996e+27,5.526965039188472e+27,4.514032992075245e+28
11.34735979,3.010922424659722e+27,5.472323716277193e+27,4.470358121298383e+28
11.35728579,2.9824826646876164e+27,5.418212092499621e+27,4.4270929121366934e+28
11.36721279,2.954325490398201e+27,5.364625457407776e+27,4.384233751405442e+28
11.37713879,2.926447826989701e+27,5.311559136146235e+27,4.341777054898238e+28
11.38706579,2.898846634456114e+27,5.259008489165559e+27,4.299719267134323e+28
11.39699179,2.8715189072272934e+27,5.206968911939979e+27,4.258056861111155e+28
11.40691879,2.8444616738123637e+27,5.155435834689454e+27,4.216786338062136e+28
11.41684479,2.817671996446389e+27,5.104404722106225e+27,4.175904227219337e+28
11.42677079,2.7911469707402283e+27,5.053871073085969e+27,4.1354070855811034e+28
11.43669779,2.764883725333506e+27,5.0038304204636e+27,4.095291497684447e+28
11.44662379,2.7388794215506383e+27,4.954278330753774e+27,4.055554075382113e+28
11.45655079,2.713131253059855e+27,4.905210403896091e+27,4.0161914576241985e+28
11.46647679,2.687636445535172e+27,4.856622273004983e+27,3.97720031024422e+28
11.47640379,2.6623922563212535e+27,4.8085096041242346e+27,3.9385773257494486e+28
11.48632979,2.637395974101125e+27,4.760868095986119e+27,3.9003192231153614e+28
11.49625679,2.6126449185666855e+27,4.7136934797750704e+27,3.862422747584094e+28
