Time (s),Acceleration x (m/s^2),Acceleration y (m/s^2),Acceleration z (m/s^2)
10.00086475,-3.130410194,-11.26600742,4.705485821
10.00562689,-2.721835852,-10.99501991,4.679164886
10.01041564,-2.267199516,-10.78205872,4.542773724
10.01519111,-1.652244091,-10.67438221,3.982254982
10.01995324,-1.148554921,-10.68694401,3.091526747
10.02474199,-0.6640082598,-10.7862463,2.206780672
10.02951746,-0.2171486616,-10.80897808,1.287936807
10.0342796,0.1010967568,-10.73539925,0.4606183469
10.0390684,0.380458802,-10.46500969,-0.4001995921
10.04384382,0.4695914388,-9.987641335,-1.101296663
10.048606,0.4348955154,-9.360722542,-1.77846539
10.05339475,0.1674975902,-8.662615776,-2.382055044
10.05817022,-0.494716078,-8.013563156,-3.061018467
10.06293236,-1.357926846,-7.365108013,-3.762713671
10.06772111,-2.468794823,-6.687939167,-4.558327198
10.07249658,-3.482155085,-6.059225082,-5.023731232
10.07725871,-4.411766529,-5.453841209,-4.981258392
10.08204751,-5.003990173,-5.012963295,-4.383052826
10.08682293,-5.165505886,-4.748556614,-3.393620729
10.09158507,-4.917250633,-4.715056896,-2.445464849
10.09637387,-4.499104977,-4.92143774,-1.828116536
10.10114934,-3.970290899,-5.228317261,-1.216152072
10.10591147,-3.504886866,-5.463412285,-0.6185446382
10.11070022,-3.073580742,-5.651248932,-0.1645065546
10.11547569,-2.722434044,-5.852844238,0.327816695
10.12023783,-2.486142635,-6.059225082,0.7010970116
10.12502658,-2.364706993,-6.314060688,1.007976532
10.12980205,-2.27078867,-6.612565517,1.400997639
10.13456418,-2.354537487,-6.84945488,1.655833244
10.13935298,-2.467000246,-7.162914753,1.675574064
10.1441284,-2.676372051,-7.529016495,1.552343726
10.14889059,-2.770290375,-7.800003529,1.509871125
10.15367934,-2.803789854,-7.929814339,1.462014675
10.15845481,-2.847458839,-7.973483086,1.29451704
10.16323022,-2.773281336,-8.011170387,0.9050851464
10.16800569,-2.529811859,-8.145168304,0.261415869
10.17278116,-2.220539331,-8.370692253,-0.604187727
10.1775433,-1.908276081,-8.682356834,-1.805384636
10.18233205,-1.700698733,-8.975478172,-3.130410194
10.18710751,-1.549950838,-9.166903496,-4.302295208
10.19186965,-1.464407444,-9.301499367,-5.084748268
10.19665845,-1.431506157,-9.387641907,-5.271986485
10.20143387,-1.334596872,-9.479166985,-4.951348305
10.20619606,-1.306481123,-9.623932838,-4.298107624
10.21098481,-1.257428288,-9.821938515,-3.453441381
10.21576028,-1.06660068,-10.07258701,-2.648854733
10.22052241,-0.7908278704,-10.3848505,-2.011167526
10.22531116,-0.4438686073,-10.75513935,-1.566700578
10.23008663,-0.1322034448,-11.13081264,-1.323829174
10.23484876,0.02273181453,-11.48674488,-1.112662554
10.23963757,0.1585244983,-11.80917835,-0.8829515576
10.24441298,0.1322034448,-12.08854008,-0.628115952
10.24917517,0.02033899166,-12.3547411,-0.4019941986
10.25396392,-0.05862415582,-12.56650639,-0.209371984
10.25873939,-0.1806581169,-12.73579884,-0.03050848842
10.26350152,-0.3218346536,-12.81775284,0.142971158
10.26829028,-0.5395814776,-12.86680603,0.2973082066
10.27306574,-0.7345965505,-12.83330631,0.4133601189
10.27784121,-0.8721838593,-12.76152134,0.5006981492
10.28261663,-0.9433703423,-12.68016529,0.6017948985
10.2873921,-1.061216831,-12.60299683,0.793818891
10.29215428,-1.211964726,-12.52164078,1.073180914
10.29694304,-1.467398524,-12.44566917,1.377069473
10.3017185,-1.790429592,-12.41755295,1.5224334
10.30648064,-2.060818434,-12.43250847,1.605584025
10.31126939,-2.336591244,-12.44327641,1.55892396
10.31604486,-2.571087837,-12.40499115,1.348953724
10.32082033,-2.716451883,-12.26082325,1.01874423
10.32559574,-2.915056229,-12.21236897,0.4869394004
10.33037121,-3.086143017,-12.27517986,-0.2518445849
10.33513335,-3.113062143,-12.31346512,-0.8273184299
10.33992215,-3.072384357,-12.32303619,-1.138983607
10.34469757,-2.982055187,-12.33739376,-1.216152072
10.34947304,-2.68175602,-12.39422321,-1.150349498
10.3542485,-2.419143677,-12.46122169,-1.022333503
10.35902397,-2.223530531,-12.7884407,-1.095314622
10.36379939,-1.866401672,-13.2400856,-1.250249863
10.36857486,-1.345364571,-13.63908863,-1.127617717
10.37335033,-0.9858429432,-13.92203999,-0.7890332937
10.3781258,-0.9320043921,-13.99442291,-0.5635097623
10.38290126,-0.8859425783,-13.92682552,-0.7896314859
10.38767668,-0.7657032609,-13.77727413,-1.298704505
10.39245215,-0.665802896,-13.55533981,-1.908874273
10.39722762,-0.7070791125,-13.23649693,-2.302493572
10.40200309,-0.6951149702,-12.97627735,-2.571686029
10.40676522,-0.9056833982,-12.75553894,-2.681157827
10.41155397,-1.266999602,-12.41456223,-2.443670034
10.41632944,-1.790429592,-11.88574791,-2.182852507
10.42109158,-2.184647083,-11.49153042,-1.893320918
10.42588038,-2.636292458,-10.97228813,-1.517049551
10.4306558,-3.226123095,-10.45424175,-1.259222865
10.43541798,-3.871587038,-9.939785004,-0.7142575383
10.44020673,-4.559523582,-9.494122505,-0.1591227055
10.4449822,-5.252245903,-9.202198029,0.3720839322
10.44974434,-5.838487148,-9.040083885,1.008574724
10.45453309,-6.105885029,-9.036494255,1.638485312
10.45930856,-6.183651924,-9.296713829,2.008176327
10.46407069,-6.189633846,-9.619745255,2.335394859
10.46885949,-6.378666878,-9.933204651,2.509472847
10.47363491,-6.972086906,-10.13240719,2.574677229
10.4783971,-7.752147198,-10.2837534,2.531008244
10.48318585,-8.589634895,-10.47817039,2.425125837
10.48796132,-9.652048111,-10.70728302,2.133201361
10.49272345,-10.6480608,-10.9304142,1.605584025
10.4975122,-11.45623684,-11.12542915,0.866201818
10.50228767,-11.91446209,-11.2510519,-0.2255235314
10.50704981,-11.79781246,-11.13978577,-1.416550994
10.51183856,-10.87537861,-10.90050316,-2.807977438
10.51661402,-9.818349838,-10.68036366,-4.143172264
10.52137616,-9.120243073,-10.38963604,-5.063810825
10.52616496,-9.062815666,-10.09531879,-5.615954876
10.53094043,-9.497711182,-9.845269203,-5.786443233
10.53570257,-10.24187946,-9.726823807,-5.230710506
10.54049132,-10.45005512,-9.650852203,-4.236492634
10.54526678,-9.908080101,-9.563513756,-3.437887907
10.55004225,-9.105886459,-9.27278614,-2.799602509
10.55481767,-8.231309891,-8.904889107,-2.050648928
10.55959314,-7.044469833,-8.477770805,-1.404586911
10.56435528,-5.73260498,-8.022536278,-0.6245267391
10.56914408,-4.638486862,-7.770093441,0.3248256743
10.57391949,-3.535993576,-7.666005611,1.700698733
10.57868168,-2.583052158,-7.688737392,2.713460922
10.58347043,-2.12183547,-7.798807144,2.605783939
10.5882459,-1.875972986,-8.173283577,2.177468538
10.59300804,-1.069591761,-8.676973343,1.47756803
10.59779678,0.2350948304,-9.309276581,0.5832505226
10.60257225,1.895115495,-10.052248,0.1148554832
10.60733439,3.203989506,-10.59302616,-0.08315058798
10.61212319,3.567100286,-10.65942669,-0.628115952
10.61689861,3.169891834,-10.51107121,-0.9762716293
10.6216608,2.202593327,-10.09412193,-1.019342422
10.62644955,1.374676585,-9.647860527,-0.8039883971
10.63122501,0.980459094,-9.19621563,-0.4474578202
10.63600048,0.5970092416,-8.778069496,0.06340979785
10.6407759,1.092323542,-8.767900467,0.9918249846
10.64555137,1.532602906,-9.046664238,1.258026481
10.65032684,0.6993024349,-8.720044136,0.5180460811
10.65510231,-1.155135155,-7.621140003,-0.2602194548
10.65987778,-2.655434847,-6.32363224,-0.6993024349
10.66463991,-3.254837036,-5.183452129,-0.7639086246
10.66942866,-3.133999348,-4.180859566,-0.6789634228
10.67420413,-2.664407969,-3.26979208,-0.4953143001
10.67896626,-2.318047047,-2.483749866,-0.2243271172
10.68375501,-2.236690998,-1.785045743,0.1830509305
10.68853048,-2.302493572,-1.188036442,0.6340979934
10.69329262,-2.392822742,-0.6101697683,0.9894321561
10.69808142,-2.516651154,-0.04725824669,1.21555388
10.70285689,-2.465205431,0.3918247223,1.387238979
10.70761903,-2.431705952,0.7483552694,1.545165181
10.71240778,-2.426920414,1.003190875,1.679163337
10.71718324,-2.326421738,1.089930773,1.861017823
10.72194538,-2.234896421,1.056431174,1.999801517
10.72673413,-2.177468538,0.8494520187,2.033301115
10.7315096,-1.966900229,0.4743770957,2.036890268
10.73628507,-1.683948994,-0.007178467698,2.011765718
10.74106054,-1.536192179,-0.4492524564,1.829312921
10.745836,-1.493719578,-0.8829515576,1.60378933
10.75061142,-1.532602906,-1.225125194,1.297508121
10.75538689,-1.595414519,-1.566700578,0.9086744189
10.76016236,-1.824527264,-2.029711723,0.6275177598
10.76492449,-2.261815548,-2.565704107,0.342173636
10.76971324,-2.689532757,-3.187838078,0.04725824669
10.77448871,-3.126821041,-3.892524242,-0.1848455518
10.7792509,-3.273381472,-4.673182487,-0.394815743
10.78403965,-3.437887907,-5.612963676,-0.6382854581
10.78881512,-3.555734396,-6.62991333,-1.006181955
10.79357725,-3.169891834,-7.780262947,-1.502094388
10.798366,-2.811566591,-9.204590797,-2.030309916
10.80314147,-2.402393818,-10.74497032,-2.900100946
10.80790361,-1.399203062,-12.93380451,-4.175475597
10.81269236,-0.9074779749,-15.74596977,-5.347360611
10.81746783,0.05144568533,-18.98106575,-6.678966045
10.82223001,1.162313581,-22.98964119,-9.930811882
10.82701876,0.2524427772,-27.42533684,-18.02393723
10.83179423,-2.243869543,-32.5280304,-29.89472961
10.83655637,-0.4295116663,-38.83251953,-35.37548828
10.84134512,-0.5575276613,-39.60001755,-32.5908432
10.84612059,-1.639083505,-37.68695831,-27.86441994
10.85088272,-1.262213945,-33.72025681,-20.12782669
10.85567152,-1.963909149,-27.65385056,-14.10150242
10.86044694,-3.564707518,-21.73879433,-10.52662468
10.86520913,-4.432105541,-16.6157608,-7.252645493
10.86999788,-3.930809498,-12.20758247,-3.908675671
10.87477335,-2.477767944,-8.250452042,-0.6460621357
10.87953548,-0.9008977413,-3.768097401,2.941975355
10.88432423,0.4199403822,0.7238288522,5.811567783
10.8890997,1.259222865,3.881756544,6.25543642
10.89386184,2.934797049,6.014957905,6.687341213
10.89865064,3.291925669,7.725826263,6.87158823
10.90342606,1.77846539,8.339585304,6.340980053
10.90818824,-0.3038884699,7.765307903,6.251249313
10.91297699,-2.210369825,6.734599113,5.979065418
10.91775246,-3.709473372,5.560919762,5.196014404
10.9225146,-5.060820103,4.204189301,4.484149456
10.92730335,-5.531009674,2.594418049,3.820739508
10.93207882,-5.458028316,1.000199914,3.250649452
10.93684095,-4.645066738,-0.6263213158,3.045464993
10.94162975,-3.88056016,-2.310868502,3.402593851
10.94640522,-3.660420418,-4.155734539,4.247260094
10.95116736,-3.985844374,-6.628716946,4.96091938
10.95595611,-5.097310543,-10.64925671,4.676771641
10.96073158,-6.404987812,-16.43809319,4.125824451
10.96549371,-7.928019524,-22.10190392,3.279363394
10.97028246,-9.19980526,-26.79662323,1.311864972
10.97505793,-10.33280659,-29.55016327,-0.2835494876
10.97982012,-10.94357395,-31.01696396,-8.327022552
10.98460887,-3.869792461,-37.40400696,-47.97549438
10.98938434,-10.50688457,-33.78127289,-30.44089127
10.99414647,-13.71924877,-28.40160751,-11.18883896
10.99893522,-15.18545055,-23.13201523,4.738387108
11.00371069,-13.84666634,-18.84826469,10.52542877
11.00847283,-11.22592735,-15.15673637,10.01515961
11.01326163,-9.229715347,-11.85523987,7.534998417
11.01803705,-7.159325123,-9.334401131,5.781059742
11.02279923,-5.357530117,-7.359126091,4.402793884
11.02758798,-3.900899172,-5.740979671,2.968296528
11.03236345,-2.737389088,-4.475774765,1.737787485
11.03712559,-2.538784742,-3.332603693,0.5934200287
11.04191434,-3.381058455,-2.32701993,-1.283749342
11.04668981,-4.455435753,-1.856232166,-3.18843627
11.05145194,-5.425127029,-1.805384636,-3.788436413
11.05624074,-5.252245903,-2.427518606,-2.257628202
11.06101616,-4.215555191,-3.307479143,-0.5539384484
11.06577835,-3.381058455,-4.201796532,0.8913264275
11.0705671,-3.248854876,-5.203791142,1.735992789
11.07534257,-3.31525588,-6.254240036,1.986641049
11.0801047,-3.626322746,-7.204190731,1.911865234
11.0848935,-3.833301783,-8.009375572,1.880160451
11.08966892,-3.949353695,-8.679366112,1.967498422
11.09443111,-3.775874138,-9.113064766,2.193022013
11.09921986,-3.415754318,-9.391230583,2.613560438
11.10399533,-3.020938635,-9.573683739,3.254837036
11.10875746,-2.730808735,-9.790233612,3.824328899
11.11354621,-2.749951363,-10.07019424,4.453640938
11.11832168,-3.051447153,-10.44167995,4.867599487
11.12308382,-3.566502094,-10.88614655,5.115256786
11.12787262,-4.130609989,-11.23011494,5.319842815
11.13264804,-4.864608288,-11.42453194,5.727221012
11.13741022,-5.523232937,-11.47478104,6.239284992
11.14219897,-5.706283569,-11.35513973,6.643671989
11.14697444,-5.178666592,-11.19003487,6.674180508
11.15173658,-4.365106583,-11.05244732,6.022136211
11.15652533,-3.506681681,-10.95314598,4.76949358
11.1613008,-2.626122952,-10.80598736,3.349353552
11.16606293,-1.774278045,-10.63490009,1.962114573
11.17085173,-1.08335042,-10.38724327,0.7154539824
11.1756272,-0.6137589812,-10.19282627,-0.3332005441
11.18038934,-0.3547359705,-9.98943615,-1.34237349
11.18517809,-0.3367897868,-9.699904442,-2.177468538
11.18995356,-0.2626122832,-9.256035805,-3.08973217
11.19471569,-0.380458802,-8.595617294,-4.059423447
11.19950444,-0.7621139884,-7.898109436,-4.661816597
11.20427991,-1.189232826,-7.310671329,-4.914857864
11.2090421,-1.789831281,-6.830910206,-4.87417984
11.21383085,-2.759522676,-6.495915413,-4.638486862
11.21860632,-3.533002615,-6.189633846,-4.058825493
11.22336845,-4.072584152,-5.820540905,-3.393620729
11.2281572,-4.125824451,-5.492724419,-2.606980324
11.23293267,-3.817748547,-5.232504845,-1.869990945
11.23769481,-3.667000771,-5.02552557,-1.213161111
11.24248361,-3.611965895,-4.861617565,-0.7142575383
11.24725902,-3.691527128,-4.813760757,-0.4648058116
11.25202121,-3.686143398,-4.958526611,-0.4121637046
11.25680996,-3.60478735,-5.078765869,-0.4265206456
11.26158543,-3.499503136,-5.208576679,-0.3792623878
11.2663609,-3.417548895,-5.376672268,-0.2979064286
11.27113632,-3.226721287,-5.598606586,-0.2506481707
11.27591178,-2.973082066,-5.73260498,-0.05982056633
11.28068725,-2.870789051,-5.886343479,0.1657029688
11.28546272,-2.825923443,-6.098706722,0.342771858
11.29023819,-2.986840963,-6.358926296,0.4636093974
11.29501361,-3.194418192,-6.625127792,0.5324030519
11.29978908,-3.169891834,-6.981060028,0.484546572
11.30456455,-3.008974552,-7.394420147,0.1722832322
11.30932668,-2.838485956,-7.852047443,-0.3038884699
11.31411548,-2.650051117,-8.328219414,-0.8368897438
11.3188909,-2.480758905,-8.784649849,-1.432702541
11.32365309,-2.316850424,-9.251849174,-2.038086653
11.32844184,-2.080559254,-9.689137459,-2.55254364
11.33321731,-1.838884234,-10.11266708,-2.874976397
11.33797944,-1.63788712,-10.5170536,-2.976671457
11.34276819,-1.479362607,-10.85862923,-2.890529871
11.34754366,-1.329811215,-11.18106174,-2.761915445
11.35230585,-1.213759303,-11.48435211,-2.584846735
11.3570946,-1.036092162,-11.76311588,-2.426322222
11.36187007,-0.7824530005,-11.99402332,-2.303091764
11.3666322,-0.4953143001,-12.17647648,-2.169692039
11.37142095,-0.1465603858,-12.31107235,-2.018345833
11.37619642,0.2111666054,-12.42592812,-1.875972986
11.38095856,0.5318048596,-12.52104282,-1.709671736
11.38574736,0.7328019142,-12.60299683,-1.504487276
11.39052278,0.8297112584,-12.64128208,-1.216750264
11.39528496,0.8464609981,-12.6125679,-0.8811569214
11.40007371,0.7387840152,-12.46361542,-0.5012963414
11.40484918,0.4540380836,-12.24287701,-0.1543370634
11.40961132,0.0652044192,-11.98804188,0.1447657645
11.41440007,-0.3290131092,-11.72901821,0.3720839322
11.41917554,-0.7238288522,-11.53759289,0.5659025311
11.42393772,-1.065404296,-11.42752266,0.7118647099
11.42872647,-1.264606714,-11.37547874,0.8470591903
11.43350194,-1.392024517,-11.42393398,0.9678967595
11.43826408,-1.523629785,-11.45324516,1.165304661
11.44305283,-1.655833244,-11.51127148,1.338784218
11.4478283,-1.916650891,-11.56511021,1.508076429
11.45260376,-2.163111687,-11.68594742,1.591227055
11.45737923,-2.391027927,-11.85523987,1.582852125
11.46215465,-2.63389945,-12.02393341,1.445264935
11.46691684,-2.925225735,-12.13579845,1.192223907
11.47170559,-3.093919754,-12.28534985,0.784845829
11.47648106,-3.201596737,-12.37687492,0.2003988922
11.48125653,-3.14895463,-12.47318649,-0.5389832854
11.48603199,-2.953341246,-12.55872917,-1.321436286
11.49080741,-2.933002472,-12.41874981,-1.792822361
11.4955696,-2.735594511,-12.49053383,-2.282752752
11.50035835,-2.73260355,-12.46122169,-2.585444927
11.50513382,-2.90967226,-12.61077309,-2.733201742
11.50989595,-2.961117983,-12.99123192,-2.790031195
11.5146847,-2.368296146,-13.57328606,-2.648854733
11.51946017,-1.540977836,-14.00519085,-2.20618248
11.52422231,-0.9810572863,-14.19183064,-1.700698733
11.52901111,-0.6029912829,-14.07518101,-1.347757339
11.53378658,-0.3409772217,-13.79043484,-1.156929731
11.53854871,0.03469592705,-13.66481209,-1.072582722
11.54333746,0.2673979402,-13.58225918,-1.054636598
11.54811293,0.2811566591,-13.50030518,-1.078564763
11.5528884,0.1477568001,-13.30708504,-1.068993568
11.55766387,-0.1232303679,-13.02413368,-0.890130043
11.56243928,-0.650847733,-12.41396427,-0.4510470629
11.56720147,-1.206580877,-11.80319595,0.02691925503
11.57199022,-1.676770449,-11.30369377,0.3643072546
11.57676569,-2.042872429,-10.85623646,0.6586244106
11.58152783,-2.461018085,-10.3663063,1.010967612
11.58631658,-2.863610506,-9.789635658,1.554736495
11.59109205,-3.438486099,-9.266205788,1.979462504
11.59585423,-4.076173306,-8.892327309,2.285743713
11.60064298,-4.7844491,-8.743971825,2.380260229
11.60541845,-5.316852093,-8.909674644,2.392822742
11.61018059,-5.738586903,-9.238089561,2.476571321
11.61496934,-6.393023968,-9.687342644,2.571686029
11.61974481,-7.323233604,-10.29212856,2.629712105
11.62450694,-8.605786324,-10.97946644,2.660818815
11.62929574,-10.04506969,-11.70090294,2.649452925
11.63407116,-11.55075264,-12.36969662,2.590230465
11.63883335,-12.83091354,-12.90688515,2.309672117
11.6436221,-13.72343636,-13.26042461,1.661815286
11.64839757,-13.98245907,-13.4345026,0.4061816335
11.6531597,-13.716856,-13.33101273,-1.236491084
11.65794845,-12.33260822,-12.96132183,-2.631506681
11.66272392,-10.2783699,-12.12682533,-3.914059639
11.66748611,-8.502297401,-11.32762241,-4.764110088
11.67227486,-7.806583881,-10.67019463,-5.032105923
11.67705033,-8.107481003,-10.06421185,-4.987838745
11.68181246,-8.831310272,-9.728618622,-4.887938499
11.68660121,-9.121439934,-9.449854851,-4.728815556
11.69137668,-8.525627136,-9.107083321,-4.284946918
11.69613887,-7.097710133,-8.780462265,-3.342773199
11.70092762,-5.60279417,-8.483752251,-2.150549412
11.70570309,-4.93878603,-7.982456207,-0.7292127013
11.71046522,-4.683950424,-7.442276478,0.8333004713
11.71525397,-4.256831646,-7.109674454,2.376072884
11.72002944,-3.433102369,-7.262216568,3.173480988
11.72479158,-2.67338109,-7.317849636,2.857628345
11.72958038,-1.268195987,-7.51645422,2.255833626
11.7343558,0.06400800496,-8.057829857,1.236491084
11.73911798,1.529013634,-8.833703041,0.07776673883
11.74390673,2.906681299,-9.754940033,-0.8937192559
11.7486822,3.004188776,-10.26042366,-1.537388563
11.75344434,2.200200319,-10.37827015,-1.523031592
11.75823314,1.459023595,-10.40399265,-1.37048912
11.76300856,1.497308731,-10.45723343,-0.5551348329
11.76777074,2.142772675,-10.81256771,0.4833501875
11.77255949,2.525026083,-10.92742252,0.7022934556
11.77733496,2.462812662,-10.97587776,0.6400800347
11.7820971,1.648056626,-10.85204887,0.5006981492
11.78688585,0.1058823988,-10.03729248,0.04725824669
11.79166132,-1.86580348,-8.754739761,-0.3708875179
11.7964235,-3.330809116,-7.47697258,-0.4360919297
11.80121225,-4.129413605,-6.211767673,-0.4277170599
11.80598772,-4.252644062,-4.844269276,-0.3469592929
11.81074986,-3.889533281,-3.34038043,-0.1573280841
11.81553861,-3.397808075,-1.936989903,0.09810572863
11.82031408,-3.147758245,-0.7896314859,0.3984049559
11.82507626,-3.077169895,0.01914258115,0.6753742099
11.82986501,-3.181855917,0.5198407173,0.9355936646
11.83464048,-3.457628727,0.9140582681,1.162313581
11.83940262,-3.581457376,1.178465128,1.258624673
11.84419137,-3.643670797,1.338186026,1.296909928
11.84896684,-3.586242914,1.338186026,1.339980721
11.85372897,-3.375674486,1.145563841,1.473380566
11.85851778,-3.111865759,0.8327022791,1.630110383
11.86329324,-2.862414122,0.4773681164,1.739582062
11.86805538,-2.594418049,0.09690931439,1.805384636
11.87284413,-2.32701993,-0.2494517565,1.823929071
11.8776196,-2.269592285,-0.5575276613,1.770688772
