Time (s),X (m/s^2),Y (m/s^2),Z (m/s^2)
6.0042115,-0.4076458177719378,1.207777820199771,0.41354922413222517
6.0141365,-0.2719861087948448,1.5674356536469407,0.6121418045550217
6.0240625,-0.14119672785497744,1.9335526444793378,0.8028060081292349
6.0339875,-0.01682169585167098,2.3042962744387983,0.9832807376304183
6.0439125,0.09970910577600063,2.6776541373277682,1.1514151650772535
6.0538385,0.20710335751609757,3.051440756850693,1.3051999287033615
6.0637635,0.30422746057629996,3.4233079715751105,1.4427965075727036
6.0736895,0.39012500506453063,3.7907590140588012,1.5625642787034506
6.0836145,0.4640321659604234,4.151166321453511,1.663084803255214
6.0935395,0.5253897058066971,4.501793026342159,1.743182939108068
6.1034655,0.5738513332461769,4.839817992229669,1.8019444356044705
6.1133905,0.6092882408452671,5.162364177613395,1.8387297295394929
6.1233165,0.6317897213035382,5.466530035559994,1.853183726802898
6.1332415,0.6416598378874415,5.749423583115569,1.845241419927486
6.1431665,0.6394102033278022,6.00819870742166,1.8151292582099874
6.1530925,0.6257490014202064,6.240093212829192,1.763362254492179
6.1630175,0.6015664657494741,6.442468055311392,1.6907368807251517
6.1729435,0.5679171078358599,6.612847158018453,1.5983198713802669
6.1828685,0.5259990595570192,6.748957157054774,1.4874331173479545
6.1927935,0.47713095841473857,6.848766392136748,1.3596348914980743
6.2027195,0.42272685514163677,6.910522435397135,1.216697699936653
6.2126445,0.3642696580454353,6.9327874457376835,1.0605831004515274
6.2225705,0.30328364645436034,6.91447064741304,0.8934138724199134
6.2324955,0.24130658854847742,6.854857259843997,0.7174439609785567
6.2424205,0.17986199023803656,6.753633249104213,0.5350266520147019
6.2523465,0.12043198480158679,6.610905327349608,0.3485814623181961
6.2622715,0.06443134949565252,6.427215692119618,0.1605602500547162
6.2721975,0.013183105789464947,6.2035510710482065,-0.02658693571018653
6.2821225,-0.03210387563586387,5.9413457178423865,-0.21044574140123462
6.2920485,-0.07035488525057258,5.642478091727823,-0.3886706075903408
6.3019735,-0.10064666739354819,5.309261044630531,-0.5590165662623052
6.3118985,-0.12222171484767393,4.94442543800265,-0.7193692424574047
6.3218245,-0.13449934292772422,4.551097214158352,-0.867772595267573
6.3317495,-0.13708338406311366,4.132768054821689,-1.0024539721045904
6.3416755,-0.12976641121046767,3.693259871542877,-1.1218460985766345
6.3516005,-0.11253046788663554,3.236683487360248,-1.224605683660897
6.3615255,-0.08554435166920277,2.7673919844755335,-1.3096283851919435
6.3714515,-0.049157564048015606,2.289929306264981,-1.3760599526950328
6.3813765,-0.0038911001173104055,1.8089748113395132,-1.4233034416570574
6.3913025,0.04957469531829348,1.3292845803236721,-1.451022473400949
6.4012275,0.11041493423868039,0.8556303687616836,-1.4591405953501593
6.4111525,0.1776773469139817,0.3927371748709362,-1.4478368744430137
6.4210785,0.25030145980103796,-0.05477956108170372,-1.4175379266729662
6.4310035,0.32713942520663236,-0.48247609580892037,-1.3689066413634743
6.4409295,0.40697811954384455,-0.8861408523354711,-1.3028278962062065
6.4508545,0.4885621177756467,-1.261852261099418,-1.2203915834780703
6.4607795,0.5706171492612729,-1.6060330813496402,-1.1228732894601108
6.4707055,0.6518736395044196,-1.9155003873341672,-1.011712991677085
6.4806305,0.7310899399857563,-2.1875104828366667,-0.8884921560850046
6.4905565,0.8070748450895725,-2.419798086750403,-0.7549096227348041
6.5004815,0.8787089944727626,-2.6106092119371973,-0.6127566653298986
6.5104075,0.9449647649792107,-2.7587272429227903,-0.46389160216813957
6.5203325,1.004924271697523,-2.863491808801291,-0.3102143243250318
6.5302575,1.057795125309548,-2.9248101477261215,-0.15364108976796903
6.5401835,1.1029236334182633,-2.943160767615919,0.00392009125756471
6.5501085,1.139805186250644,-2.9195893217435,0.1605931820392331
6.5600345,1.168091629354853,-2.8556967346972395,0.31455668884112237
6.5699595,1.1875954937552922,-2.753619730466589,0.46406483734714743
6.5798845,1.1982910234599047,-2.616004026457288,0.6074671513140298
6.5898105,1.200312008070975,-2.445970561569565,0.7432262613125934
6.5997355,1.1939464925822134,-2.2470752204349203,0.8699338041519574
6.6096615,1.17962849627807,-2.0232625982046977,0.9863243053857553
6.6195865,1.1579269276334163,-1.7788144208230685,1.0912869676726995
6.6295115,1.1295319322157045,-1.5182932951326973,1.1838753162947981
6.6394375,1.095238955908968,-1.2464825123922136,1.2633146791319692
6.6493625,1.0559308464188424,-0.9683226688391983,1.3290075013683769
6.6592885,1.0125583520229773,-0.6888458987870111,1.380536515483581
6.6692135,0.9661194077046121,-0.41310854036462663,1.4176658055512794
6.6791385,0.9176376245343228,-0.1461230723828791,1.4403398222530495
6.689068375,0.8681404174393982,0.10720982638867349,1.4486804213432725
6.698993375,0.8186372181696191,0.3421682373710512,1.4429820129692454
6.708919375,0.7700982232941582,0.5542741242699212,1.4237049216128859
6.718844375,0.7234341206439265,0.7393557700520478,1.3914670663419386
6.728770375,0.6794772211389559,0.8936067034541111,1.3470340788355981
6.738695375,0.6389643958783796,1.013640323041499,1.2913079825876452
6.748620375,0.6025221802793486,1.0965394712222052,1.2253145610158118
6.758546375,0.5706543578190837,1.1399002649572756,1.1501895453023951
6.768471375,0.5437322761289443,1.1418695533310093,1.06716375535023
6.778397375,0.5219880794330792,1.1011754444620607,0.977547330282555
6.788322375,0.5055109664222855,1.0171504257106234,0.8827131896291632
6.798247375,0.49424650511828583,0.8897466915333235,0.7840798733372603
6.808173375,0.487998959647697,0.7195433912313876,0.6830939170263483
6.818098375,0.48643651156851947,0.5077456118980356,0.5812119259806167
6.828024375,0.48909919403903274,0.25617501774067925,0.4798825153453778
6.837949375,0.4954093036415341,-0.032747825908221936,0.3805282856537929
6.847874375,0.5046840130120173,-0.3560293074674054,0.28452800499429637
6.857800375,0.5161498762343448,-0.7101365568337042,0.19319917395131006
6.867725375,0.5289588961687691,-1.091038808616456,0.10778115640893615
6.877651375,0.5422058075267042,-1.4942558716121959,0.029419065733744185
6.887576375,0.5549462218991312,-1.9149131250510714,-0.04085140121436899
6.897502375,0.566215281292894,-2.3478023566599893,-0.10211799186949833
6.907427375,0.5750464736195795,-2.787447659922445,-0.15360460370966436
6.917352375,0.5804902741078082,-3.228175521080733,-0.19468249319201952
6.927278375,0.5816322882766363,-3.6641881533261147,-0.22487982260274628
6.937203375,0.577610584887853,-4.089639078959578,-0.2438893884002575
6.947129375,0.5676319237871384,-4.498709922137177,-0.2515743831719212
6.957054375,0.5509866070092386,-4.885687355938678,-0.24797205312443796
6.966979375,0.5270617135514378,-5.2450391472399085,-0.23329512616081838
6.976905375,0.49535251784181084,-5.5714882594355535,-0.2079309040306032
6.986830375,0.45547193648212636,-5.8600840042797575,-0.17243793724360382
6.996756375,0.40715789453719775,-6.106269278402723,-0.1275402339253186
7.006681375,0.3502785494083682,-6.305942977028352,-0.07411899282331531
7.016607375,0.2848353555783342,-6.455516747281214,-0.013201894539888513
7.026532375,0.21096399562448054,-6.551965325734672,0.054049968362123994
7.036457375,0.128933240293366,-6.59286979762171,0.12635739467856147
7.046383375,0.039141832075785636,-6.576453215520928,0.2023404380923534
7.056308375,-0.05788648755882379,-6.501608120258681,0.28053761516551345
7.066234375,-0.161509666733262,-6.3679156136251365,0.35942670320833453
7.076159375,-0.2709755910575746,-6.175655739614956,0.4374468384358228
7.086084375,-0.3854317221829639,-5.925809037533123,0.5130215936252179
7.096010375,-0.5039359498334278,-5.620049235927657,0.5845826873812022
7.105935375,-0.6254684756562635,-5.260727159882463,0.6505939549806086
7.115861375,-0.7489445473162951,-4.850846025059764,0.7095751947804947
7.125786375,-0.8732278663204156,-4.394028391925322,0.7601254951376458
7.135711375,-0.9971445028841847,-3.894475156798292,0.8009456449043415
7.145637375,-1.119497163959122,-3.3569170638082073,0.8308592360609524
7.155562375,-1.2390796728034392,-2.786559328061262,0.8488320812019986
7.165488375,-1.3546915266463853,-2.1890200570077516,0.8539895937219425
7.175413375,-1.4651524016897872,-1.5702632397450782,0.845631816128303
7.185339375,-1.5693164729319984,-0.9365271437642919,0.8232458306588675
7.195264375,-1.6660864119306826,-0.2942490179177254,0.7865153425598354
7.205189375,-1.7544269202456864,0.3500129500354284,0.7353272857904332
7.215115375,-1.833377651529427,0.989659433755595,0.6697753603052152
7.225040375,-1.9020653726885182,1.6181305113533433,0.5901604670611468
7.234966375,-1.9597152147739045,2.228985921322473,0.4969880594508285
7.244891375,-2.0056608661065423,2.815984001120243,0.39096247656300787
7.254816375,-2.0393535622213963,3.3731582918376257,0.27297836469656056
7.264742375,-2.060369730039615,3.8948908188120077,0.14410933067723553
7.274667375,-2.0684171498361095,4.375981095592687,0.005594006077694678
7.284593375,-2.063339510753015,4.8117099469504465,-0.14118026282037088
7.294518375,-2.045119254823107,5.197897306149108,-0.2946958486644544
7.304444375,-2.013878629803451,5.530953212819656,-0.45332511633716804
7.314369375,-1.9698789006931199,5.807921319873293,-0.6153522246370415
7.324294375,-1.9135177016672704,6.026514309425162,-0.77899612492051
7.334220375,-1.8453245426014342,6.1851407169562735,-0.9424344113497339
7.344145375,-1.7659545159117414,6.282922768795086,-1.103827668220011
7.354071375,-1.676180278894704,6.319704950164511,-1.261343955023447
7.363996375,-1.576882413367086,6.2960531396799935,-1.4131830695476475
7.373921375,-1.4690382881002806,6.2132442713303835,-1.5576002332295094
7.383847375,-1.3537095709946967,6.073246616103745,-1.6929288507449063
7.393772375,-1.2320285584382933,5.878690911270855,-1.8176020073134735
7.403698375,-1.1051835101827288,5.632832703852538,-1.9301723831213877
7.413623375,-0.974403199873131,5.339506413168181,-2.029330286006509
7.423548375,-0.8409409130754258,5.003071752187239,-2.113919532601864
7.433474375,-0.7060581436775486,4.6283532749952885,-2.1829509453681877
7.443399375,-0.5710082525371423,4.220573934594011,-2.235613278225666
7.453325375,-0.437020356533956,3.7852836386827025,-2.271281435571478
7.463250375,-0.30528371130386595,3.3282838786305278,-2.289521906046692
7.473176375,-0.17693283899910553,2.8555495757816844,-2.2900953903917345
7.483101375,-0.05303363608626654,2.3731493360049725,-2.272956658510322
7.493026375,0.06542932498298541,1.8871653242850595,-2.2382517211174764
7.502952375,0.17756411721452536,1.4036139629623063,-2.1863124445002646
7.512877375,0.28258126544952505,0.928368617087769,-2.117648773730174
7.522803375,0.3798019546008856,0.4670853559868058,-2.0329387619059065
7.532728375,0.46866460922224046,0.025132773253560867,-1.9330166322671805
7.542653375,0.5487298514959166,-0.3924732813083795,-1.8188591272752563
7.552579375,0.6196838651756428,-0.7811293358591409,-1.6915704231642046
7.562504375,0.6813402030074862,-1.1366976912828173,-1.5523659070835536
7.572430375,0.7336400815762966,-1.4555530652465143,-1.402555124204133
7.582355375,0.7766512124417072,-1.7346220514674686,-1.2435242040107561
7.592281375,0.8105652207676136,-1.9714150304589675,-1.0767180699905554
7.602206375,0.8356937015786826,-2.1640502399223744,-0.9036227260937241
7.612131375,0.8524629599496644,-2.311269790880503,-0.725747896869805
7.622057375,0.8614074764572386,-2.4124475013678013,-0.5446102761676183
7.631982375,0.8631621348238139,-2.4675885132688764,-0.36171761188736107
7.641908375,0.858453246351978,-2.4773207587395714,-0.1785538212541904
7.651833375,0.8480884068507472,-2.4428784482825328,0.003434707436047776
7.661758375,0.8329452274449327,-2.3660778598480543,0.1828515123903665
7.671684375,0.813958991402213,-2.249285813789858,0.3583610815303428
7.681609375,0.7921093044130201,-2.0953813183743133,0.5286984632266437
7.691536375,0.768405824549629,-1.9077109610865324,0.6926774564759907
7.701461375,0.7438731794435394,-1.6900386993518222,0.8491973986916148
7.711387375,0.7195352015489308,-1.4464907693361995,0.9972485932540076
7.721312375,0.6963986375848922,-1.1814964836016288,1.1359164409266285
7.731237375,0.6754365152727008,-0.8997257286503689,1.264384358889438
7.741163375,0.6575713788255679,-0.6060240027692199,1.3819355883031854
7.751088375,0.6436586332301489,-0.3053458536411191,1.4879540059527747
7.761014375,0.634470264527765,-0.0026875840997644686,1.5819240674628756
7.770939375,0.6306792268827245,0.2969799069021872,1.6634300181933728
7.780864375,0.6328448045616285,0.5887772925077779,1.7321545120397628
7.790790375,0.6413992653055777,0.8679811608705162,1.7878767768320805
7.800715375,0.6566361191137385,1.1300857283151229,1.830470457449785
7.810641375,0.678700283111371,1.3708611569566829,1.8599012547125942
7.820566375,0.7075804304429831,1.5864077588467698,1.8762244605657934
7.830492375,0.7431037707197194,1.7732054266111688,1.879582468751652
7.840417375,0.7849334721008343,1.9281576986409619,1.8702023150888571
7.850342375,0.8325688899839249,2.0486299439451985,1.8483932725158916
7.860268375,0.885348713546792,2.132481235212534,1.8145444943057307
7.870193375,0.9424570789195019,2.1780895655930017,1.7691226680827428
7.880119375,1.0029326280191606,2.1843701531490995,1.712669619008164
7.890044375,1.065680418333558,2.150786665746399,1.645799786488649
7.899969375,1.1294865167946806,2.0773552872776784,1.569197493491513
7.909895375,1.1930350480098666,1.9646416320409263,1.483613925099132
7.919820375,1.254927420282833,1.8137505971060306,1.3898637286218214
7.929746375,1.3137034234016955,1.626309323944618,1.2888211427606024
7.939671375,1.3678638746185157,1.4044435230676064,1.1814155635207617
7.949597375,1.4158944751764713,1.1507475004439482,1.0686264635278007
7.959522375,1.4562905235169346,0.8682483107717083,0.9514775978888873
7.969447375,1.4875821129762477,0.5603645463414689,0.8310304496970432
7.979373375,1.5083594259373803,0.2308603466196376,0.7083768880558984
7.989298375,1.5172977285947253,-0.11620472063507324,0.5846310295290429
7.999224375,1.5131816739426662,-0.47652920226513934,0.4609203105780278
8.009149375,1.4949285349686943,-0.8456259800813487,0.33837579529113027
8.019075375,1.4616100124229452,-1.2188803902022107,0.2181217609943673
8.029000375,1.4124722882649055,-1.5916094398409841,0.10126462504366042
8.038925375,1.3469540235723094,-1.9591213063074573,-0.011118700655646387
8.048851375,1.2647020256527994,-2.3167743009796204,-0.11799291541862311
8.058776375,1.1655843319602046,-2.660034494215288,-0.21837675665883327
8.068702375,1.0497004790902384,-2.9845312284798897,-0.3113555803384855
8.078627375,0.9173887469207372,-3.286109796857201,-0.39609389924360333
8.088552375,0.7692301949640871,-3.560880630242021,-0.47184765724035965
8.098478375,0.6060493425092323,-3.8052644147838723,-0.5379759956708032
8.108403375,0.4289113851584483,-4.01603264739935,-0.5939522519741326
8.118329375,0.239115884762846,-4.190343228173804,-0.639373922511766
8.128254375,0.0381869150119566,-4.325770781672652,-0.6739713234670835
8.138179375,-0.17214030918033674,-4.420331491856161,-0.6976146966220261
8.148105375,-0.389936242568668,-4.4725023243294215,-0.710319530047378
8.158030375,-0.613097134226857,-4.481234592305454,-0.7122498950279585
8.167956375,-0.8393682862559637,-4.445961897293428,-0.7037196372988348
8.177881375,-1.0663702120843797,-4.366602541518285,-0.6851913012122378
8.187807375,-1.2916274047266254,-4.243556566060783,-0.6572727092278723
8.197732375,-1.5125993709628476,-4.07769761625268,-0.6207111658578327
8.207657375,-1.7267135350370098,-3.8703598738511533,-0.5763853040560191
8.217583375,-1.93139956670808,-3.623320324576803,-0.52529464150886
8.227508375,-2.1241246451009883,-3.3387766511764427,-0.46854696279271496
8.237434375,-2.3024291334617506,-3.0193210583446324,-0.4073436899510358
8.247359375,-2.463962111962285,-2.6679103491899507,-0.34296344842563675
8.257285375,-2.606516197348417,-2.2878325864494693,-0.2767440771413895
8.267210375,-2.728061071070015,-1.8826706882226274,-0.21006336964560132
8.277135375,-2.82677514365578,-1.4562633292527543,-0.14431886511710473
8.287061375,-2.9010748044394443,-1.0126635438912739,-0.0809070308349371
8.296986375,-2.949640743125198,-0.5560954523979975,-0.021202188788978588
8.306912375,-2.971440882147198,-0.090909553746899,0.03346446289695726
8.316837375,-2.9657495235599685,0.3784629575210691,0.08182539777380153
8.326762375,-2.9321623871953975,0.8475563864701757,0.12269656657908748
8.336688375,-2.8706072936553713,1.3119167816568968,0.154996177522255
8.346613375,-2.7813503229287884,1.7671477701038427,0.17776219483239805
8.356539375,-2.6649973551600215,2.208955534328651,0.19016831907640253
8.366464375,-2.5224909736916334,2.6331924923233516,0.19153822653523314
8.376390375,-2.355102781286985,3.0358992522229653,0.18135785671188184
8.386315375,-2.164421246599183,3.413344425972772,0.15928555235064512
8.396240375,-1.952335256749071,3.762061902126348,0.12515987875668386
8.406166375,-1.7210136012225468,4.078885198361825,0.07900497897573802
8.416091375,-1.4728806521902928,4.360978540023985,0.021033356326088472
8.426017375,-1.2105885388094737,4.605864341988835,-0.04835398681472944
8.435942375,-0.9369861409224861,4.811446807287269,-0.1285700868459319
8.445867375,-0.6550852532614925,4.976031397190428,-0.21884722772066037
8.455793375,-0.3680242963018943,5.098339973675288,-0.31824477613272
8.465718375,-0.07902997484724181,5.177521465670721,-0.42565955988875187
8.475644375,0.20862268994625746,5.213157963968105,-0.5398386687400794
8.485569375,0.4916515058219879,5.205266204585995,-0.6593945217492557
8.495495375,0.7668089609922728,5.154294455125349,-0.7828220129344309
8.505420375,1.0309242919331758,5.061114871832571,-0.9085175173193974
8.515345375,1.2809452610887824,4.927011445570585,-1.034799512074316
8.525271375,1.5139791249629726,4.753663701981398,-1.1599305417320454
8.535196375,1.7273322627843164,4.5431263646960725,-1.2821402325835458
8.545122375,1.9185479283250124,4.2978052310279455,-1.3996490399745805
8.555047375,2.085441582298446,4.02042954814273,-1.5106923944997592
8.564972375,2.2261332599020567,3.71402121526165,-1.6135449003527087
8.574898375,2.33907642781944,3.3818611745983853,-1.7065442323074298
8.584823375,2.4230827889095057,3.027453390040921,-1.7881143770464305
8.594749375,2.477342504325484,2.6544868461808617,-1.8567878692502144
8.604674375,2.501439326813518,2.26679602785297,-1.9112266829667106
8.614600375,2.4953601806680163,1.8683203579432082,-1.9502414557428271
8.624525375,2.4594987881496286,1.4630630752861107,-1.9728087495855529
8.634450375,2.3946530332443494,1.0550500225767807,-1.9780860916071992
8.644376375,2.3020158735081546,0.6482887862674425,-1.9654245884541914
8.654301375,2.183159757170414,0.24672859003020417,-1.9343789686065134
8.664227375,2.0400146679643334,-0.14577870237245652,-1.884714967983711
8.674152375,1.8748400922606432,-0.5255161622676553,-1.8164140284947488
8.684078375,1.6901913686717807,-0.8889376719164421,-1.7296753194364405
8.69399875,1.4888810281574718,-1.2327018474319489,-1.6249151143009692
8.70392375,1.2739358553097153,-1.5537037660351871,-1.5027635609315806
8.71384975,1.0485504945307356,-1.8491042532906303,-1.3640588768285629
8.72377475,0.8160384861386515,-2.1163564756328355,-1.209838994457738
8.73370075,0.5797816478095131,-2.3532295714403713,-1.0413306847082415
8.74362575,0.34317872058877746,-2.5578290489441162,-0.8599362060447872
8.75355075,0.1095941831562105,-2.728613691050885,-0.6672175619873754
8.76347675,-0.11769188952302873,-2.8644087452319718,-0.46487849713427565
8.77340175,-0.33553208218963837,-2.9644152462202262,-0.25474441802810216
8.78332775,-0.5409572119867365,-3.028215414649515,-0.03874048302835046
8.79325275,-0.7312184741174362,-3.0557741772621507,0.18113184313870734
8.80317875,-0.9038254851645754,-3.047436940786891,0.4028194314015844
8.81310375,-1.0565796330507211,-3.003923807223667,0.6242429480490008
8.82302875,-1.187602242716527,-2.9263204414355024,0.8433227140958275
8.83295475,-1.295357179701089,-2.8160657994841625,1.0580045173923012
8.84287975,-1.3786676338034796,-2.6749369070099376,1.26628492351157
