Time (s),X (m/s^2),Y (m/s^2),Z (m/s^2)
6.000629917,-0.1292904112673282,-0.3721086488197219,-0.02127016538672646
6.010555917,-0.14560333328650343,-0.43225687995014306,0.05970685460917363
6.020481917,-0.15821602793514175,-0.4908108940443358,0.13896975999981545
6.030407917,-0.16587146930937977,-0.5468813409958918,0.21534796756051433
6.040333917,-0.16753740432734354,-0.5995707434490427,0.287679753787883
6.050259917,-0.16246710290787508,-0.6479894431986829,0.354823244947612
6.060185917,-0.15024652035697253,-0.6912748408009646,0.41567199160400237
6.070111917,-0.13082516563572547,-0.7286137022861997,0.46917552252376943
6.080037917,-0.10452874966074446,-0.7592669186356218,0.5143647579018535
6.089962917,-0.07205260707933073,-0.7825957262780664,0.5503816041222419
6.099888917,-0.03443589688726053,-0.7980880711823367,0.5765114960497215
6.109814917,0.00698236569372287,-0.8053835662467915,0.5922171467350142
6.119740917,0.050623375630961163,-0.8042953823137609,0.5971713573557966
6.129666917,0.09474170905263732,-0.7948274378826095,0.591286478767637
6.139592917,0.13750783853075524,-0.7771854012781757,0.5747380394040882
6.149518917,0.17709567633768925,-0.7517802707719907,0.547980185414927
6.159444917,0.21177052457425624,-0.7192236334946293,0.5117509171207846
6.169370917,0.2399727810178678,-0.6803141075382565,0.46706562726356277
6.179295917,0.26039299547327155,-0.6360149252329104,0.41519811189523265
6.189221917,0.27203437097084904,-0.5874230934044933,0.35764898611866863
6.199147917,0.2742595157317806,-0.53573104022602,0.29610223920642276
6.209073917,0.2668191239331654,-0.48218210575377324,0.23237144643970498
6.218999917,0.24986124398768206,-0.4280216378735817,0.1683378602842103
6.228925917,0.22392083372918853,-0.374445796705966,0.10588318458461864
6.238851917,0.18989035544141541,-0.3225504173685857,0.046820257487769294
6.248777917,0.14897318146779745,-0.27328239813944694,-0.007174898003716318
6.258703917,0.10262251327320988,-0.2273960447449088,-0.05462617920478214
6.268628917,0.052469314209786025,-0.1854166112294554,-0.09431240013822871
6.278554917,0.00024337164601248885,-0.14761295771811012,-0.12531134720845705
6.288480917,-0.05230800748091231,-0.11398083595064755,-0.14703067842817982
6.298406917,-0.10349904198103992,-0.08423785812784718,-0.15922419272608287
6.308332917,-0.15177780899812712,-0.057830734594136055,-0.16199279807209385
6.318258917,-0.19578788074016204,-0.03395489100913046,-0.15577030808061776
6.328184917,-0.23441602533428424,-0.011586087255689359,-0.1412949513765625
6.338110917,-0.26682368951250746,0.010476853930096454,-0.11956816254461188
6.348036917,-0.29246106997058463,0.033559639263508294,-0.09180283073638808
6.357961917,-0.31106370748485257,0.05905238784485075,-0.05936370933234481
6.367887917,-0.32263261658213044,0.08834427108825887,-0.023703126776510583
6.377813917,-0.3273999246883047,0.12275578041389311,0.01370454061232884
6.387739917,-0.32578278941448013,0.16347176125025856,0.051426006930213604
6.397665917,-0.31832896063609284,0.2114784519653449,0.08812623038858534
6.407591917,-0.30565774164693493,0.2675076813071352,0.12261625066614966
6.417517917,-0.2884002817609483,0.3319911018408077,0.15388889244721532
6.427443917,-0.2671431111419531,0.4050268768728562,0.18114027504581576
6.437369917,-0.24237861808747793,0.486360618827449,0.20377603288614016
6.447294917,-0.2144657752766745,0.5753816394712723,0.22140226292935705
6.457220917,-0.18360384739318983,0.6711347696743073,0.23380239295762031
6.467146917,-0.14982106676784634,0.7723471957411167,0.2409023143671882
6.477072917,-0.11297936967415748,0.8774689953180873,0.24272713861531847
6.486998917,-0.07279528405902821,0.9847253836582839,0.23935371089082833
6.496924917,-0.028876003551836376,1.0921781329812714,0.23086346083692819
6.506850917,0.01923136519475004,1.197793225458054,0.21730023919748895
6.516776917,0.07198036652910778,1.2995115582552184,0.19863747519090422
6.526701917,0.12975937974468385,1.395319443495146,0.17475832210397924
6.536627917,0.1928238360459712,1.4833157327447402,0.14545149358086631
6.546553917,0.26123120476994316,1.5617726296318053,0.11042430644237847
6.556479917,0.3347834840312735,1.6291876121657918,0.06933313170139971
6.566405917,0.4129815892491695,1.684324340525145,0.021830117357598686
6.576331917,0.49499536322923054,1.726240947425797,-0.032376219834997444
6.586257917,0.5796519740390487,1.7543046694711328,-0.09345006146871623
6.596183917,0.6654442872983276,1.7681923574952627,-0.16135148617755588
6.606109917,0.7505594861226147,1.7678769911294314,-0.23575901730297377
6.616035917,0.8329268725651509,1.7536009193665616,-0.31599726119068666
6.625960917,0.9102825356816134,1.7258371578746219,-0.4009756499895762
6.635886917,0.9802475213515133,1.6852406791467442,-0.48914427869499577
6.645812917,1.040415369447704,1.6325921873562188,-0.578472453391477
6.655738917,1.088444440288878,1.5687373131969895,-0.6664547947199448
6.665664917,1.1221503426044586,1.4945244413640721,-0.750148534382756
6.675590917,1.1395939739857142,1.4107444668915523,-0.8262440118843196
6.685516917,1.1391611397448018,1.3180756640040134,-0.8911683914776032
6.695442917,1.1196303586212946,1.2170365586623981,-0.9412204017497173
6.705368917,1.0802262213425882,1.1079492551149424,-0.9727316215826588
6.715293917,1.0206564757396994,0.990915122753375,-0.9822476857341879
6.725219917,0.9411318201632287,0.8658041556187455,-0.9667209452963715
6.735148917,0.8423681618825535,0.7322587243186913,-0.9237047458811762
6.745074917,0.725571816379233,0.5897118889696048,-0.8515386815393164
6.755000917,0.592408766806257,0.4374199548234524,-0.7495139920284531
6.764926917,0.4449596476597858,0.274508533093289,-0.6180086974625686
6.774852917,0.2856625402155433,0.10003100524478802,-0.45858307718183233
6.784778917,0.11724595558766954,-0.08696204455349367,-0.2740276398263258
6.794704917,-0.05734546191209117,-0.2873441977324514,-0.06835771328153672
6.804629917,-0.23502992881790088,-0.5018275035763451,0.15324889731931815
6.814555917,-0.4126696509848335,-0.7308722605349413,0.38457218454267444
6.824481917,-0.5871515742907935,-0.974595266823014,0.6185264636750936
6.834407917,-0.7554653045644081,-1.2326799567601427,0.847388738664218
6.844333917,-0.9147758042473612,-1.5042921723800278,1.0630718240529833
6.854259917,-1.0624885336159622,-1.7880054919069512,1.2574326168419507
6.864185917,-1.1963047628071475,-2.0817400097334966,1.422603662171031
6.874111917,-1.3142648459406299,-2.382718240117327,1.551334296581469
6.884037917,-1.4147773572584625,-2.6874414485406906,1.6373262853040262
6.893962917,-1.4966322146384827,-2.9916892921514773,1.6755480681270252
6.903888917,-1.5589963553425497,-3.2905452802411537,1.6625115373319808
6.913814917,-1.6013912725662682,-3.578450304984356,1.5964957324256783
6.923740917,-1.623652811085687,-3.849286278778781,1.4777030232918285
6.933666917,-1.6258750166472633,-4.096491552929479,1.3083354012197073
6.943592917,-1.6083414139506758,-4.313209041553232,1.0925815910300836
6.953518917,-1.5714486838808612,-4.492466669284363,0.8365099821315227
6.963444917,-1.5156291629568472,-4.6273878865981555,0.5478678104923118
6.973370917,-1.441279770857028,-4.711427683043752,0.23579326708608694
6.983295917,-1.3487057668728786,-4.738627004696051,-0.08954637152240966
6.993221917,-1.2380879954810142,-4.703876023011238,-0.41737168922478235
7.003147917,-1.1094818238601174,-4.603174593943288,-0.736739812657215
7.013073917,-0.9628546170065045,-4.4338767563646035,-1.0369989771802455
7.022999917,-0.7981662148651298,-4.194905462386564,-1.308222869790775
7.032925917,-0.6154934894108738,-3.8869240321511804,-1.5416007547208592
7.042851917,-0.4151958839461998,-3.5124520909728045,-1.7297636913225563
7.052777917,-0.19811424658606425,-3.0759158848715886,-1.8670330953146157
7.062703917,0.03420930196446165,-2.583625735035837,-1.9495845634831508
7.072628917,0.2793068515589689,-2.043676836032302,-1.9755261942566884
7.082554917,0.5335751991506509,-1.465773477752707,-1.9448956246872748
7.092480917,0.792103139894381,-0.8609808383391886,-1.8595831657564672
7.102406917,1.0485581451486061,-0.24141236224220444,-1.723189941962812
7.112332917,1.295154454142464,0.3801360364326619,-1.5408305410408674
7.122258917,1.5227224633698466,0.9905913893185135,-1.318890095932866
7.132184917,1.7208951819734553,1.5770337341028868,-1.0647463584411878
7.142110917,1.8784211022284907,2.127135126698989,-0.7864682519751351
7.152036917,1.9836042252060386,2.6295916660786975,-0.4925034422395593
7.161961917,2.024861839807206,3.0745326457394295,-0.19136822624821892
7.171887917,1.9913799228735878,3.453891191953963,0.10864706233430863
7.181813917,1.8738356618244318,3.7617211846688723,0.3997453027932762
7.191739917,1.6651475041164276,3.9944460143106157,0.6748532130654803
7.201665917,1.3612061955285317,4.151026037522116,0.9278092414857918
7.211591917,0.961536271210694,4.233033686774891,1.1535056863292974
7.221517917,0.4698369612750437,4.244628191273218,1.3479844645732166
7.231443917,-0.10564530024001181,4.192425747152414,1.5084876429867116
7.241369917,-0.751953703331912,4.085265533149268,1.633464895905344
7.251295917,-1.4514980154119648,3.933876876729788,1.722540687500655
7.261220917,-2.1823895867355434,3.750457755329207,1.7764443623160826
7.271146917,-2.9190374588410926,3.5481793114195974,1.7969065497851024
7.281072917,-3.632992517630102,3.34063489102817,1.7865253903419607
7.290998917,-4.294010195160378,3.1412551159909645,1.7486061352953528
7.300924917,-4.871286559355795,2.9627126195523794,1.6869777764385963
7.310850917,-5.334809007633314,2.816341338620081,1.6057907099501951
7.320776917,-5.656752455580355,2.711595673859057,1.5093002618622375
7.330702917,-5.812845906303529,2.6555742959233815,1.401642367336291
7.340628917,-5.783633271852746,2.6526316532399243,1.2866097600613233
7.350553917,-5.555556616997383,2.704097051455773,1.1674393719232317
7.360479917,-5.1217995564380905,2.8081163969758016,1.0466237726036183
7.370405917,-4.482842813125304,2.9596254986284323,0.9257609037550266
7.380331917,-3.6467017664112884,3.150456740113662,0.8054566784152863
7.390257917,-2.628835435975327,3.3695737921712228,0.6852938433145681
7.400183917,-1.4517357659210062,3.6034227013061466,0.5638774440760105
7.410109917,-0.14422353557594486,3.836382834048116,0.4389620413616729
7.420035917,1.2595084568751762,4.051298089027556,0.30765867791446283
7.429961917,2.7210537327077438,4.230067531762187,0.16671120413262344
7.439886917,4.199094264514394,4.3542750200772495,0.012822986577117317
7.449812917,5.650786340091687,4.405839342995948,-0.15699251109665566
7.459738917,7.033172070721722,4.367669856370094,-0.34506852428312346
7.469664917,8.30456454651967,4.224317186834608,-0.5527799324950775
7.479590917,9.425863645659279,3.962612611750919,-0.7802999826050939
7.489516917,10.361768977861171,3.572290362311878,-1.0264308483846827
7.499442917,11.081863965864953,3.0465826999044943,-1.2885096216529062
7.509368917,11.561549891959913,2.38276975780734,-1.5623863429274656
7.519294917,11.782811749790628,1.5826583729467196,-1.8424711155167335
7.529220917,11.73480010444433,0.6529592688272675,-2.121850141771166
7.539145917,11.414215482618578,-0.39446895964402073,-2.3924725017553294
7.549071917,10.825484296841841,-1.5425377122303565,-2.6454085529421474
7.558997917,9.98071810333632,-2.769030774258807,-2.8711761434668177
7.568923917,8.899451350372528,-4.0469059571469,-3.060123343056475
7.578849917,7.608157057386752,-5.344802211988175,-3.20284872508985
7.588775917,6.1395454033209385,-6.62775067354934,-3.290635236285288
7.598701917,4.53165700912075,-7.858081511298984,-3.315872708542745
7.608627917,2.826770327816991,-8.996512423723404,-3.2724464877060115
7.618553917,1.070150266902208,-10.003397898208773,-3.156073819800053
7.628478917,-0.6913277242596836,-10.840110051239094,-2.964573957883005
7.638404917,-2.410637747951743,-11.470511924381311,-2.6980615519575064
7.648330917,-4.042102326014558,-11.862473407667709,-2.3590557113233945
7.658256917,-5.5428806287018215,-11.989369866842594,-1.9524996324906745
7.668182917,-6.87439377983148,-11.831495497855643,-1.4856882847923554
7.678108917,-8.003633511381976,-11.377318673936404,-0.968104432930803
7.688034917,-8.904300850954664,-10.624506106326736,-0.41116613783764266
7.697960917,-9.55772423035002,-9.580647262667505,0.17210821401536258
7.707886917,-9.953511867482794,-8.26362054114512,0.7675081879577502
7.717811917,-10.089902025627705,-6.701557955388966,1.3601002011082264
7.7277345,-9.97378717233013,-4.932384544079504,1.9347403754896517
7.7376605,-9.620403824227836,-3.0029306099342485,2.4766103494271374
7.7475865,-9.052697495372048,-0.9676370250621347,2.971750729330253
7.7575125,-8.300389278104541,1.1131057363827044,3.4075632903454727
7.7674385,-7.398784899615797,3.1749265944798766,3.7732517203276164
7.7773645,-6.38737747870107,5.151678177040754,4.060173773678536
7.7872905,-5.308301869045425,6.977792297947926,4.262086319114173
7.7972165,-4.204702338361143,8.590694151698138,4.375277110634012
7.8071425,-3.119077206495894,9.933178117871353,4.398588826722022
7.8170675,-2.0916642331075157,10.955647656014133,4.333348290374134
7.8269935,-1.1589288660126094,11.618125944874533,4.183216123873559
7.8369195,-0.3522137380161647,11.891952561436561,3.95397117632679
7.8468455,0.3033979506801471,11.761094034831387,3.653242141847182
7.8567715,0.7899600729017651,11.22301167871013,3.2901974291010654
7.8666975,1.0972462233541038,10.289047717360233,2.8752042605549044
7.8766235,1.223011889626253,8.984309349901817,2.4194691000001933
7.8865495,1.1729227703199638,7.347049045469538,1.934673038247449
7.8964755,0.9601496218790824,5.4275573070483825,1.4326165702013074
7.9064005,0.6046450456828157,3.2866011485795377,0.924887457604885
7.9163265,0.1321330637128129,0.9934576947032555,0.42256302555963393
7.9262525,-0.42714293497863043,-1.3763923381868948,-0.06404515595102875
7.9361785,-1.0398553584554806,-3.74383228611981,-0.5255999088137955
7.9461045,-1.6711420082021369,-6.028846847327314,-0.9538992894779721
7.9560305,-2.2861948732280077,-8.153327809194185,-1.341990775302304
7.9659565,-2.8518105174728743,-10.04384077165114,-1.6842411844059961
7.9758825,-3.3378264825631643,-11.634243575132258,-1.9763652788708086
7.9858085,-3.7183743986757154,-12.868049909643123,-2.21541631243503
7.9957345,-3.972890653823588,-13.700439205195124,-2.399742230530316
8.0056595,-4.086839078146009,-14.09982672305188,-2.528912146784324
8.0155855,-4.052116591059847,-14.048926125685226,-2.6036193726502708
8.0255115,-3.8671312835711285,-13.545260519733112,-2.6255695623808597
8.0354375,-3.536561670857351,-12.601105722453593,-2.597364643476149
8.0453635,-3.0708241478272864,-11.242878656629946,-2.522393759016863
8.0552895,-2.485291270618801,-9.510011030652398,-2.4047402834290525
8.0652155,-1.7993151317454086,-7.453371133953727,-2.2491090337525725
8.0751415,-1.0351173689876518,-5.133313541654768,-2.0607714077573855
8.0850675,-0.21661050866375217,-2.6174480294540583,-1.8455203131133533
8.0949925,0.6317850362343723,0.021774172358234277,-1.6096229560814235
8.1049185,1.4862673640473814,2.7095559146308466,-1.3597584392826374
8.1148445,2.3246678850474183,5.3712316936005715,-1.1029285390940113
8.1247705,3.1273077410943912,7.934632390168149,-0.8463335177631128
8.1346965,3.8776591708132084,10.332250920682725,-0.5972097852452998
8.1446225,4.5627867447700226,12.503134521342735,-0.36263200169472753
8.1545485,5.173556047263813,14.394444357904872,-0.14928803411612784
8.1644745,5.704610648492592,15.962640629209137,0.03675982503895984
8.1744005,6.154131568860944,17.174270685201062,0.19031062281476627
8.1843255,6.523406146532622,18.00635792614252,0.30723952695776896
8.1942515,6.816244315834046,18.446409020086595,0.38467457391973764
8.2041775,7.038288806568496,18.49207479346491,0.42112103416604785
8.2141035,7.196270965857784,18.150514844571575,0.41652315360671655
8.2240295,7.297265452333285,17.43752680565072,0.3722583081208866
8.2339555,7.347994929506273,16.376507788097033,0.29106476707028983
8.2438815,7.35423028961882,14.997317409037862,0.17691060706506936
8.2538075,7.32032336393633,13.33510855295222,0.03481666935632084
8.2637335,7.248898362853557,11.429183915605012,-0.12935038378167155
8.2736595,7.140716454043276,9.321924507984532,-0.3090984143849618
8.2835845,6.994715815970528,7.057822296446158,-0.4975289569355346
8.2935105,6.808217846359822,4.6826346622432595,-0.6875439392031651
8.3034365,6.577279501606003,2.242664724157938,-0.8720327364701583
8.3133625,6.297162556673248,-0.21584025018068526,-1.0440363323990762
8.3232885,5.962883471766272,-2.647189573212226,-1.1968889946994217
8.3332145,5.569803006013012,-5.006673256602044,-1.324340849835562
8.3431405,5.114213025209538,-7.250938687943944,-1.4206668581177666
8.3530665,4.593879150343688,-9.33835228614729,-1.4807687935331004
8.3629925,4.008501732883774,-11.229380238845273,-1.5002767249976208
8.3729185,3.3600636417595067,-12.887021915122801,-1.4756549113523725
8.3828435,2.6530409424119026,-14.277325644084604,-1.4043138783293774
8.3927695,1.8944612129435192,-15.370008188378254,-1.2847262327723281
8.4026955,1.0938035294036341,-16.139186254810618,-1.1165395301629641
8.4126215,0.26274367749037336,-16.564211695321095,-0.900676269710152
8.4225475,-0.5852424579095262,-16.630583318757804,-0.639409349592412
8.4324735,-1.435395498499824,-16.330889456785094,-0.3364011088393129
8.4423995,-2.2722794136081235,-15.665718779817576,0.003304668710942285
8.4523255,-3.0804423709502093,-14.64446457494745,0.373345746557116
8.4622515,-3.8450910827175666,-13.285941805541576,0.7661634297060834
8.4721775,-4.552736801235329,-11.618738158346218,1.1731827155237087
8.4821025,-5.191773230495576,-9.681230216439273,1.5850445677488663
8.4920285,-5.75295208035497,-7.52121279939936,1.9918792622114683
8.5019545,-6.229730185824412,-5.195111265037942,2.3836053183163015
8.5118805,-6.618472047196729,-2.766770692463581,2.750235275942169
8.5218065,-6.918501937169087,-0.3058401785603469,3.0821685965652397
8.5317325,-7.13200887508613,2.11420655714175,3.370454573030213
8.5416585,-7.263814881781972,4.418352290585719,3.6070145919190706
8.5515845,-7.321022123580129,6.532538962697057,3.784821468558336
8.5615105,-7.3125585680615774,8.386296446596617,3.8980405413547525
8.5714355,-7.2486451605200095,9.915390295143359,3.942140451467176
8.5813615,-7.140210333609924,11.064374396349294,3.9139810946837232
8.5912875,-6.998279708264256,11.788933302307887,3.811883752099593
8.6012135,-6.83337007831184,12.05790411987285,3.6356856154554937
8.6111395,-6.654917261986666,11.854878865756836,3.3867787957006263
8.6210655,-6.4707671283970845,11.17930408394891,3.0681325525714143
8.6309915,-6.286757856265929,10.047014226680613,2.6842965132888845
8.6409175,-6.1064189517182905,8.490157970650348,2.2413817006223606
8.6508435,-5.930808433924735,6.556501468135055,1.7470152758500888
8.6607695,-5.758503588740219,4.308118445039892,1.2102642883900918
8.6706945,-5.585752597422559,1.8195028139281453,0.6415236270548513
8.6806205,-5.406784338772542,-0.824835981126908,0.05236383677221496
8.6905465,-5.214262415066906,-3.5332120550335055,-0.5446645027462214
8.7004725,-4.999858031053987,-6.209933703522318,-1.136271486021156
8.7103985,-4.754905974121093,-8.75868588572568,-1.7087130011467235
8.7203245,-4.471099731596184,-11.085992390849142,-2.248116706259869
8.730250875,-4.141176599898824,-13.104618258414304,-2.740842233128856
8.740176875,-3.759542052579131,-14.736771857391853,-3.173866116549854
8.750102875,-3.322785060182704,-15.916971577183482,-3.535179611570962
8.760028875,-2.830042879321862,-16.594454798615132,-3.814186105616918
8.769953875,-2.283185173897842,-16.735026964594383,-4.002084666466557
8.779879875,-1.6868025243814238,-16.32227591092538,-4.092227483408
8.789805875,-1.048001555093479,-15.358109699561602,-4.080440863072426
8.799731875,-0.37602534622474887,-13.862611859574343,-3.9653007055568654
8.809657875,0.31826894779402803,-11.873241872891885,-3.7483529295984006
8.819583875,1.0230344231433226,-9.443437155933697,-3.4342671179063298
8.829509875,1.7261150477738891,-6.6406939190244225,-3.030908780042587
8.839435875,2.4157354802402824,-3.544218466887119,-2.5493135704053436
